# dimensionless total [l(l+1)/2pi] C_l's
# for l=2 to 3000, i.e. number of multipoles equal to 2999
#
# -> if you prefer output in CAMB/HealPix/LensPix units/order, set 'format' to 'camb' in input file
# -> if you don't want to see such a header, set 'headers' to 'no' in input file
# -> for CMB lensing (phi), these are C_l^phi-phi for the lensing potential.
#    Remember the conversion factors:
#    C_l^dd (deflection) = l(l+1) C_l^phi-phi
#    C_l^gg (shear/convergence) = 1/4 (l(l+1))^2 C_l^phi-phi
#
# 1:l     2:TT                     3:EE                     4:TE                     5:BB                     6:phiphi                 7:TPhi                   8:Ephi               
    2       1.742730968478e-10       7.642398844205e-15       5.080225015486e-13       0.000000000000e+00       9.470088102053e-09       5.820800492250e-10      -2.716957167303e-12 
    3       1.629226149880e-10       1.193481049663e-14       6.231372388749e-13       0.000000000000e+00       5.865297746347e-09       4.125340982243e-10      -2.299397997546e-12 
    4       1.523556190741e-10       1.275920879470e-14       6.277011497643e-13       0.000000000000e+00       4.085966118193e-09       3.122751383721e-10      -1.743017479095e-12 
    5       1.442492976248e-10       1.069238702162e-14       5.718897156022e-13       0.000000000000e+00       3.050239099470e-09       2.466890264429e-10      -1.206771531248e-12 
    6       1.383960161177e-10       7.405665235993e-15       4.891630045275e-13       0.000000000000e+00       2.381932272832e-09       2.006864855867e-10      -7.438314059021e-13 
    7       1.343164053731e-10       4.421537552064e-15       4.015753201982e-13       0.000000000000e+00       1.920130277666e-09       1.668363084392e-10      -3.777110522891e-13 
    8       1.316602231169e-10       2.473882876578e-15       3.216479043455e-13       0.000000000000e+00       1.585068270427e-09       1.410946190112e-10      -1.142097352408e-13 
    9       1.300484450739e-10       1.544305982035e-15       2.560717316278e-13       0.000000000000e+00       1.333437007137e-09       1.210487814784e-10       5.271664760762e-14 
   10       1.292549187404e-10       1.232649960190e-15       2.076363761420e-13       0.000000000000e+00       1.139489037107e-09       1.051288834289e-10       1.372876169791e-13 
   11       1.290762679942e-10       1.132569682722e-15       1.762543636202e-13       0.000000000000e+00       9.631260973702e-10       9.257498212456e-11       1.580878858990e-13 
   12       1.293595104528e-10       1.025751413688e-15       1.598813018812e-13       0.000000000000e+00       8.413742226878e-10       8.182203283301e-11       1.367652483868e-13 
   13       1.300058220901e-10       8.820715580733e-16       1.553257807579e-13       0.000000000000e+00       7.414199265765e-10       7.286020276662e-11       9.200705777149e-14 
   14       1.309761391111e-10       7.587011794408e-16       1.589647908933e-13       0.000000000000e+00       6.582678637854e-10       6.546941931561e-11       4.021664452017e-14 
   15       1.321714901256e-10       7.031712149270e-16       1.673646800335e-13       0.000000000000e+00       5.882891555926e-10       5.904140822954e-11      -7.123067527952e-15 
   16       1.335304266424e-10       7.150980999489e-16       1.777550081199e-13       0.000000000000e+00       5.287922002174e-10       5.351523467511e-11      -4.244146606820e-14 
   17       1.350635182624e-10       7.617408262284e-16       1.882338202558e-13       0.000000000000e+00       4.777570171733e-10       4.875717648188e-11      -6.265187927161e-14 
   18       1.367417478809e-10       8.101797004884e-16       1.976578280839e-13       0.000000000000e+00       4.334665989756e-10       4.459775429848e-11      -6.834844096049e-14 
   19       1.385581469443e-10       8.582526249628e-16       2.058328429655e-13       0.000000000000e+00       3.952149597707e-10       4.095638454455e-11      -6.227085108679e-14 
   20       1.404518396825e-10       9.157027385982e-16       2.129131844000e-13       0.000000000000e+00       3.615296479590e-10       3.768551568141e-11      -4.904864563250e-14 
   21       1.424285014482e-10       9.990992642754e-16       2.193502499233e-13       0.000000000000e+00       3.318807300784e-10       3.476404198343e-11      -3.275016849589e-14 
   22       1.444789816338e-10       1.126065698327e-15       2.257611495204e-13       0.000000000000e+00       3.055571920271e-10       3.216596237480e-11      -1.769178430616e-14 
   23       1.466045773359e-10       1.296031648648e-15       2.326112137565e-13       0.000000000000e+00       2.821965309292e-10       2.986254615443e-11      -6.268549579643e-15 
   24       1.487853117382e-10       1.501104011349e-15       2.402707439723e-13       0.000000000000e+00       2.612584282796e-10       2.779445075044e-11      -6.428995649678e-17 
   25       1.510215453129e-10       1.736625724012e-15       2.487229721369e-13       0.000000000000e+00       2.424959578598e-10       2.593041863035e-11       9.845775660567e-16 
   26       1.533032117682e-10       1.998751694331e-15       2.577303207608e-13       0.000000000000e+00       2.255688585313e-10       2.423206792928e-11      -2.157069259647e-15 
   27       1.556334088535e-10       2.287945863237e-15       2.668671569363e-13       0.000000000000e+00       2.102740841343e-10       2.269126684071e-11      -7.926138708361e-15 
   28       1.580078296470e-10       2.605441550441e-15       2.755859268211e-13       0.000000000000e+00       1.963481292693e-10       2.129713695248e-11      -1.440174421643e-14 
   29       1.604332171541e-10       2.949950807755e-15       2.834413973012e-13       0.000000000000e+00       1.837195875681e-10       2.003861899088e-11      -2.037360629846e-14 
   30       1.629049213618e-10       3.318768895476e-15       2.899450743615e-13       0.000000000000e+00       1.722523574636e-10       1.888994826477e-11      -2.465690183383e-14 
   31       1.654066912350e-10       3.709519125820e-15       2.946122300214e-13       0.000000000000e+00       1.617120161146e-10       1.781617926668e-11      -2.614459253616e-14 
   32       1.679457399174e-10       4.124760179860e-15       2.973491625405e-13       0.000000000000e+00       1.520440618655e-10       1.681631190400e-11      -2.501358139787e-14 
   33       1.705278579585e-10       4.569182117033e-15       2.982143608916e-13       0.000000000000e+00       1.431802242740e-10       1.589451677893e-11      -2.199196666831e-14 
   34       1.731498795683e-10       5.047687564667e-15       2.973182284297e-13       0.000000000000e+00       1.349965130777e-10       1.504889850058e-11      -1.797555007598e-14 
   35       1.758102044791e-10       5.562591978969e-15       2.948059626000e-13       0.000000000000e+00       1.274507994230e-10       1.427382550215e-11      -1.370461728204e-14 
   36       1.784998288476e-10       6.115472615877e-15       2.908758720748e-13       0.000000000000e+00       1.204821654305e-10       1.355722190623e-11      -9.997687982165e-15 
   37       1.812052846948e-10       6.707716155110e-15       2.857301041293e-13       0.000000000000e+00       1.139995268016e-10       1.288407157822e-11      -7.640845333026e-15 
   38       1.839322540941e-10       7.339878569579e-15       2.793760405013e-13       0.000000000000e+00       1.079860560424e-10       1.225288963051e-11      -6.676234909277e-15 
   39       1.866884245508e-10       8.012090961081e-15       2.717607652423e-13       0.000000000000e+00       1.024226960161e-10       1.166399090273e-11      -6.878531205994e-15 
   40       1.894764235227e-10       8.724206741700e-15       2.628231680592e-13       0.000000000000e+00       9.725641017872e-11       1.111473269470e-11      -7.937634725391e-15 
   41       1.922952747712e-10       9.476018566972e-15       2.524771535999e-13       0.000000000000e+00       9.241864436448e-11       1.060074302617e-11      -9.484715235625e-15 
   42       1.951467365089e-10       1.026803943717e-14       2.405567372424e-13       0.000000000000e+00       8.789506468538e-11       1.012073923068e-11      -1.119521595781e-14 
   43       1.980300470602e-10       1.110094410492e-14       2.268516465490e-13       0.000000000000e+00       8.367353334522e-11       9.672820814189e-12      -1.270910359550e-14 
   44       2.009396309112e-10       1.197535260220e-14       2.111198101624e-13       0.000000000000e+00       7.972317900692e-11       9.252939542613e-12      -1.359778854807e-14 
   45       2.038684934818e-10       1.289182029636e-14       1.931450578703e-13       0.000000000000e+00       7.600539659689e-11       8.856287703818e-12      -1.348941749715e-14 
   46       2.068206576478e-10       1.385081076063e-14       1.729353449088e-13       0.000000000000e+00       7.251428057897e-11       8.482354927052e-12      -1.249851203442e-14 
   47       2.098016931194e-10       1.485271028306e-14       1.505805018279e-13       0.000000000000e+00       6.924574423937e-11       8.131096500089e-12      -1.091821103578e-14 
   48       2.128149868486e-10       1.589783146365e-14       1.261992097547e-13       0.000000000000e+00       6.618532765532e-11       7.801431024699e-12      -9.105756543245e-15 
   49       2.158615218431e-10       1.698641014310e-14       9.994050229001e-14       0.000000000000e+00       6.330742652613e-11       7.491161556661e-12      -7.486072901698e-15 
   50       2.189407254561e-10       1.811863824874e-14       7.194492012494e-14       0.000000000000e+00       6.058299467761e-11       7.197663630683e-12      -6.450454548938e-15 
   51       2.220537988599e-10       1.929477996842e-14       4.221205996645e-14       0.000000000000e+00       5.800690548911e-11       6.920352458309e-12      -6.011905881459e-15 
   52       2.252009089869e-10       2.051508180188e-14       1.069966938492e-14       0.000000000000e+00       5.557668440366e-11       6.658749108667e-12      -6.062434048541e-15 
   53       2.283800312375e-10       2.177973805140e-14      -2.263953555241e-14       0.000000000000e+00       5.328432080244e-11       6.411730398631e-12      -6.468438867718e-15 
   54       2.315867786227e-10       2.308888944074e-14      -5.785826708052e-14       0.000000000000e+00       5.111589559687e-11       6.177486121533e-12      -7.069355898129e-15 
   55       2.348164531842e-10       2.444258343739e-14      -9.500790948974e-14       0.000000000000e+00       4.905581827055e-11       5.954052735387e-12      -7.708346291594e-15 
   56       2.380711884508e-10       2.584064684028e-14      -1.341153759011e-13       0.000000000000e+00       4.710162375182e-11       5.741167667440e-12      -8.336402898067e-15 
   57       2.413542820511e-10       2.728277912114e-14      -1.752011972418e-13       0.000000000000e+00       4.525219910034e-11       5.538800741412e-12      -8.931729588155e-15 
   58       2.446680464509e-10       2.876858513754e-14      -2.182862871132e-13       0.000000000000e+00       4.350330749157e-11       5.346598207512e-12      -9.469854370468e-15 
   59       2.480137246781e-10       3.029757225981e-14      -2.633920598999e-13       0.000000000000e+00       4.184739539780e-11       5.163862430610e-12      -9.923521040730e-15 
   60       2.513914060466e-10       3.186914749789e-14      -3.105405488783e-13       0.000000000000e+00       4.027339976924e-11       4.989531578414e-12      -1.026258083089e-14 
   61       2.548007561035e-10       3.348269376181e-14      -3.597501236864e-13       0.000000000000e+00       3.876981494819e-11       4.822494162757e-12      -1.046373011678e-14 
   62       2.582435885848e-10       3.513782514556e-14      -4.110212522478e-13       0.000000000000e+00       3.733513406134e-11       4.662661117438e-12      -1.054252281549e-14 
   63       2.617217238415e-10       3.683418410681e-14      -4.643477380007e-13       0.000000000000e+00       3.596941981545e-11       4.510099411212e-12      -1.052838394482e-14 
   64       2.652361682769e-10       3.857136703467e-14      -5.197208174323e-13       0.000000000000e+00       3.467116395577e-11       4.364708933829e-12      -1.045559764462e-14 
   65       2.687870559056e-10       4.034892388738e-14      -5.771291385588e-13       0.000000000000e+00       3.343719787586e-11       4.226212808846e-12      -1.036351123387e-14 
   66       2.723735899131e-10       4.216635783007e-14      -6.365587394056e-13       0.000000000000e+00       3.226260322763e-11       4.094147706438e-12      -1.029673926781e-14 
   67       2.759939842146e-10       4.402312487254e-14      -6.979930264870e-13       0.000000000000e+00       3.114062253117e-11       3.967854156205e-12      -1.030536759506e-14 
   68       2.796463837378e-10       4.591853440247e-14      -7.614099646734e-13       0.000000000000e+00       3.006446070260e-11       3.846659758534e-12      -1.043205691358e-14 
   69       2.833319724406e-10       4.785142819107e-14      -8.267730336870e-13       0.000000000000e+00       2.903331333930e-11       3.730493580954e-12      -1.066986285379e-14 
   70       2.870523929675e-10       4.982043539592e-14      -8.940383920752e-13       0.000000000000e+00       2.804740495205e-11       3.619379424174e-12      -1.099619644182e-14 
   71       2.908087908369e-10       5.182406306560e-14      -9.631574125136e-13       0.000000000000e+00       2.710616583060e-11       3.513249270099e-12      -1.138503974140e-14 
   72       2.946017810319e-10       5.386069324279e-14      -1.034076588966e-12       0.000000000000e+00       2.620819101465e-11       3.411938528116e-12      -1.180681485981e-14 
   73       2.984314145909e-10       5.592858006740e-14      -1.106737443844e-12       0.000000000000e+00       2.535119926485e-11       3.315181281365e-12      -1.222825295372e-14 
   74       3.022971451973e-10       5.802584687959e-14      -1.181076435168e-12       0.000000000000e+00       2.453199203378e-11       3.222605533019e-12      -1.261226323521e-14 
   75       3.061977957710e-10       6.015048332296e-14      -1.257024863727e-12       0.000000000000e+00       2.374641243698e-11       3.133728452557e-12      -1.291780197763e-14 
   76       3.101321871414e-10       6.230050932008e-14      -1.334518791528e-12       0.000000000000e+00       2.299037516975e-11       3.048076778019e-12      -1.310923397330e-14 
   77       3.141012302737e-10       6.447450792413e-14      -1.413531090480e-12       0.000000000000e+00       2.226326377789e-11       2.965583878833e-12      -1.318667730555e-14 
   78       3.181061566445e-10       6.667118482370e-14      -1.494045096423e-12       0.000000000000e+00       2.156508123250e-11       2.886256799154e-12      -1.316097981118e-14 
   79       3.221478704935e-10       6.888921060691e-14      -1.576045226931e-12       0.000000000000e+00       2.089541518330e-11       2.810055373427e-12      -1.304478015521e-14 
   80       3.262269289904e-10       7.112722128640e-14      -1.659517093764e-12       0.000000000000e+00       2.025341889022e-11       2.736890039082e-12      -1.285257148727e-14 
   81       3.303435224018e-10       7.338381882425e-14      -1.744447615316e-12       0.000000000000e+00       1.963779215505e-11       2.666619649241e-12      -1.260076509790e-14 
   82       3.344974542584e-10       7.565757165697e-14      -1.830825129067e-12       0.000000000000e+00       1.904676225299e-11       2.599049285418e-12      -1.230775407488e-14 
   83       3.386881215221e-10       7.794701522041e-14      -1.918639504027e-12       0.000000000000e+00       1.847806486429e-11       2.533928070217e-12      -1.199397695961e-14 
   84       3.429148546141e-10       8.025058876988e-14      -2.007871323152e-12       0.000000000000e+00       1.792949313375e-11       2.471009831243e-12      -1.167826411940e-14 
   85       3.471780457100e-10       8.256643265625e-14      -2.098457123751e-12       0.000000000000e+00       1.740069120079e-11       2.410251439072e-12      -1.136604149768e-14 
   86       3.514781719993e-10       8.489255824873e-14      -2.190318574053e-12       0.000000000000e+00       1.689162442016e-11       2.351643492089e-12      -1.105927891378e-14 
   87       3.558154388729e-10       8.722690811400e-14      -2.283372820705e-12       0.000000000000e+00       1.640202829029e-11       2.295149274398e-12      -1.076003463818e-14 
   88       3.601897661382e-10       8.956735547047e-14      -2.377532417520e-12       0.000000000000e+00       1.593139893330e-11       2.240703624854e-12      -1.047045657348e-14 
   89       3.646007742345e-10       9.191170364261e-14      -2.472705254232e-12       0.000000000000e+00       1.547898357494e-11       2.188211806081e-12      -1.019278343536e-14 
   90       3.690477704481e-10       9.425768551519e-14      -2.568794485248e-12       0.000000000000e+00       1.504377102458e-11       2.137548373500e-12      -9.929345933564e-15 
   91       3.735297351271e-10       9.660296298759e-14      -2.665698458395e-12       0.000000000000e+00       1.462448215518e-11       2.088556044348e-12      -9.682567952884e-15 
   92       3.780453078969e-10       9.894512642809e-14      -2.763310643678e-12       0.000000000000e+00       1.421956038329e-11       2.041044566708e-12      -9.454967734114e-15 
   93       3.825931985654e-10       1.012817843973e-13      -2.861528274356e-12       0.000000000000e+00       1.382754018152e-11       1.994837413884e-12      -9.248573259041e-15 
   94       3.871735204747e-10       1.036108494404e-13      -2.960279911593e-12       0.000000000000e+00       1.344823669398e-11       1.949922357515e-12      -9.063065261310e-15 
   95       3.917866331318e-10       1.059302944689e-13      -3.059501913089e-12       0.000000000000e+00       1.308171827004e-11       1.906321554980e-12      -8.897355808200e-15 
   96       3.964327275381e-10       1.082380670059e-13      -3.159130137845e-12       0.000000000000e+00       1.272794010097e-11       1.864045273741e-12      -8.750142443004e-15 
   97       4.011118182337e-10       1.105320898790e-13      -3.259099994502e-12       0.000000000000e+00       1.238673988910e-11       1.823091416853e-12      -8.619901324880e-15 
   98       4.058237353428e-10       1.128102619141e-13      -3.359346489688e-12       0.000000000000e+00       1.205783351700e-11       1.783445048483e-12      -8.504880368697e-15 
   99       4.105681166179e-10       1.150704586285e-13      -3.459804276361e-12       0.000000000000e+00       1.174081071665e-11       1.745077919422e-12      -8.403092384885e-15 
  100       4.153443994849e-10       1.173105329245e-13      -3.560407702153e-12       0.000000000000e+00       1.143513073856e-11       1.707947992601e-12      -8.312308219286e-15 
  101       4.201518130878e-10       1.195283157827e-13      -3.661090857716e-12       0.000000000000e+00       1.114011802100e-11       1.671998968606e-12      -8.230049893002e-15 
  102       4.249893703335e-10       1.217216169554e-13      -3.761787625063e-12       0.000000000000e+00       1.085495785912e-11       1.637159811191e-12      -8.153583742241e-15 
  103       4.298558599366e-10       1.238882256601e-13      -3.862431725916e-12       0.000000000000e+00       1.057869207414e-11       1.603344272794e-12      -8.079913558173e-15 
  104       4.347500969023e-10       1.260259462074e-13      -3.962954362354e-12       0.000000000000e+00       1.031043576542e-11       1.570471214123e-12      -8.006366170920e-15 
  105       4.396717296455e-10       1.281327088741e-13      -4.063276671665e-12       0.000000000000e+00       1.005007024121e-11       1.538529710963e-12      -7.932453067104e-15 
  106       4.446205275788e-10       1.302064753702e-13      -4.163316337642e-12       0.000000000000e+00       9.797636054635e-12       1.507521898713e-12      -7.858248631114e-15 
  107       4.495961273565e-10       1.322452063054e-13      -4.262989928874e-12       0.000000000000e+00       9.553118401054e-12       1.477442720690e-12      -7.783819811981e-15 
