# dimensionless total lensed [l(l+1)/2pi] C_l's
# for l=2 to 2500, i.e. number of multipoles equal to 2499
#
# -> if you prefer output in CAMB/HealPix/LensPix units/order, set 'format' to 'camb' in input file
# -> if you don't want to see such a header, set 'headers' to 'no' in input file
# -> for CMB lensing (phi), these are C_l^phi-phi for the lensing potential.
#    Remember the conversion factors:
#    C_l^dd (deflection) = l(l+1) C_l^phi-phi
#    C_l^gg (shear/convergence) = 1/4 (l(l+1))^2 C_l^phi-phi
#
# 1:l     2:TT                     3:EE                     4:TE                     5:BB                     6:phiphi                 7:TPhi                   8:Ephi               
    2       1.742769009993e-10       7.643136558428e-15       5.080513074255e-13       2.854545696133e-19       9.460015892447e-09       5.821227112873e-10      -2.716983661424e-12 
    3       1.629253196018e-10       1.193595581679e-14       6.231552400284e-13       5.711297214753e-19       5.865077679061e-09       4.126001095634e-10      -2.299462119900e-12 
    4       1.523587137177e-10       1.276082624764e-14       6.277232563171e-13       9.523659411727e-19       4.085733579895e-09       3.123134154459e-10      -1.743058081782e-12 
    5       1.442530683906e-10       1.069437800895e-14       5.719105722481e-13       1.429437815635e-18       3.050338024467e-09       2.467122344061e-10      -1.206813235622e-12 
    6       1.384005079227e-10       7.408057523287e-15       4.891818166825e-13       2.002672410474e-18       2.382365825891e-09       2.007012900185e-10      -7.438592402285e-13 
    7       1.343224375103e-10       4.424439772007e-15       4.015907547669e-13       2.672439422598e-18       1.920581141819e-09       1.668480115194e-10      -3.777294383361e-13 
    8       1.316683996260e-10       2.477439797543e-15       3.216597570086e-13       3.439140245437e-18       1.585446952472e-09       1.411061528640e-10      -1.142214941671e-13 
    9       1.300577373308e-10       1.548661672466e-15       2.560805798852e-13       4.303196367664e-18       1.333925095397e-09       1.210622818946e-10       5.270878998735e-14 
   10       1.292663126978e-10       1.237933727854e-15       2.076421757415e-13       5.265037549817e-18       1.139946061317e-09       1.051394657314e-10       1.372813044696e-13 
   11       1.290889184104e-10       1.138898552447e-15       1.762573137816e-13       6.325090228782e-18       9.632006908767e-10       9.258071545787e-11       1.580814821286e-13 
   12       1.293751829412e-10       1.033238031031e-15       1.598824710240e-13       7.483766587511e-18       8.414416718179e-10       8.182872450770e-11       1.367576219735e-13 
   13       1.300236458843e-10       8.908273677533e-16       1.553262564811e-13       8.741454697230e-18       7.414812921809e-10       7.286726935068e-11       9.199859589094e-14 
   14       1.309965871645e-10       7.688340720916e-16       1.589644583146e-13       1.009851009282e-17       6.583239883445e-10       6.547439228451e-11       4.020797636792e-14 
   15       1.321933860799e-10       7.147833344755e-16       1.673632344000e-13       1.155524908105e-17       5.883407381735e-10       5.904415609299e-11      -7.131558630693e-15 
   16       1.335555290128e-10       7.282861658606e-16       1.777527801147e-13       1.311194400851e-17       5.288397864040e-10       5.351847550395e-11      -4.244908973085e-14 
   17       1.350918307578e-10       7.765995127664e-16       1.882302855871e-13       1.476882063394e-17       4.778010819151e-10       4.876218876344e-11      -6.265796377006e-14 
   18       1.367732016491e-10       8.268064170150e-16       1.976525411044e-13       1.652605664014e-17       4.335074256014e-10       4.460248955335e-11      -6.835254976274e-14 
   19       1.385927430335e-10       8.767482514336e-16       2.058254040629e-13       1.838378840800e-17       3.952531070588e-10       4.095944978399e-11      -6.227319816006e-14 
   20       1.404893989255e-10       9.361718247216e-16       2.129030824032e-13       2.034210350891e-17       3.615653176204e-10       3.768763839718e-11      -4.905015113558e-14 
   21       1.424691329527e-10       1.021647494564e-15       2.193368508272e-13       2.240106119701e-17       3.319141015328e-10       3.476621544524e-11      -3.275131499339e-14 
   22       1.445231477966e-10       1.150798797323e-15       2.257437232999e-13       2.456068354656e-17       3.055884956144e-10       3.216868600391e-11      -1.769230186362e-14 
   23       1.466522798963e-10       1.323054657426e-15       2.325891303282e-13       2.682098011567e-17       2.822259795561e-10       2.986555342358e-11      -6.268538353138e-15 
   24       1.488359602385e-10       1.530520841798e-15       2.402435136858e-13       2.918193902540e-17       2.612861746204e-10       2.779679497563e-11      -6.451824218664e-17 
   25       1.510751150311e-10       1.768539403501e-15       2.486899719821e-13       3.164355601283e-17       2.425221422354e-10       2.593195418467e-11       9.834949829482e-16 
   26       1.533605090432e-10       2.033264531835e-15       2.576907261644e-13       3.420582358011e-17       2.255936087799e-10       2.423376631207e-11      -2.159151035674e-15 
   27       1.556949438245e-10       2.325160556798e-15       2.668201543141e-13       3.686875654190e-17       2.102975160261e-10       2.269360977529e-11      -7.928982247094e-15 
   28       1.580734976107e-10       2.645461291776e-15       2.755307691128e-13       3.963238496831e-17       1.963703384565e-10       2.129966955305e-11      -1.440478491846e-14 
   29       1.605028804124e-10       2.992877713962e-15       2.833772781990e-13       4.249678428790e-17       1.837406671095e-10       2.004085012188e-11      -2.037630417946e-14 
   30       1.629786188179e-10       3.364703243183e-15       2.898710783933e-13       4.546205748579e-17       1.722723931588e-10       1.889168131878e-11      -2.465889098100e-14 
   31       1.654846322534e-10       3.758559483337e-15       2.945273446568e-13       4.852833480512e-17       1.617310781611e-10       1.781753505568e-11      -2.614573131280e-14 
   32       1.680280781077e-10       4.177005559466e-15       2.972523992147e-13       5.169579514189e-17       1.520622177980e-10       1.681749185101e-11      -2.501394265880e-14 
   33       1.706146005873e-10       4.624732901993e-15       2.981048103271e-13       5.496465894330e-17       1.431975368470e-10       1.589573047909e-11      -2.199187257864e-14 
   34       1.732408981457e-10       5.106645335922e-15       2.971951160327e-13       5.833518269577e-17       1.350130353234e-10       1.505033923177e-11      -1.797553237703e-14 
   35       1.759054086423e-10       5.625057206743e-15       2.946687941487e-13       6.180764554447e-17       1.274665820594e-10       1.427558159916e-11      -1.370505191323e-14 
   36       1.785992354390e-10       6.181543723350e-15       2.907245276108e-13       6.538236394780e-17       1.204972552111e-10       1.355922642886e-11      -9.998635952278e-15 
   37       1.813090255987e-10       6.777489606955e-15       2.855647385731e-13       6.905967921921e-17       1.140139637225e-10       1.288610993162e-11      -7.642060653317e-15 
   38       1.840405147368e-10       7.413450632849e-15       2.791963864100e-13       7.283989104607e-17       1.079998795574e-10       1.225475653151e-11      -6.677470548757e-15 
   39       1.868014302531e-10       8.089558350269e-15       2.715658275150e-13       7.672330591644e-17       1.024359445976e-10       1.166554727712e-11      -6.879644285477e-15 
   40       1.895944447241e-10       8.805666837457e-15       2.626110658229e-13       8.071025713054e-17       9.726911809807e-11       1.111592418254e-11      -7.938614293155e-15 
   41       1.924186014574e-10       9.561569057008e-15       2.522452845727e-13       8.480107381187e-17       9.243084017441e-11       1.060160091225e-11      -9.485675699953e-15 
   42       1.952755476483e-10       1.035777595786e-14       2.403030596773e-13       8.899597167739e-17       8.790677617260e-11       1.012131878556e-11      -1.119626960998e-14 
   43       1.981643512323e-10       1.119495925910e-14       2.265751906757e-13       9.329512960133e-17       8.368478763318e-11       9.673183939018e-12      -1.271031778696e-14 
   44       2.010792331359e-10       1.207373549123e-14       2.108209012905e-13       9.769871873266e-17       7.973400069975e-11       9.253154420159e-12      -1.359917502674e-14 
   45       2.040130237025e-10       1.299465662170e-14       1.928251804097e-13       1.022068731213e-16       7.601580698186e-11       8.856425985030e-12      -1.349093791194e-14 
   46       2.069698106203e-10       1.395818489462e-14       1.725957708200e-13       1.068195924170e-16       7.252430074009e-11       8.482480776420e-12      -1.250013922523e-14 
   47       2.099553168746e-10       1.496470591786e-14       1.502218071342e-13       1.115368091488e-16       6.925539517074e-11       8.131261253723e-12      -1.091995012091e-14 
   48       2.129731148139e-10       1.601453172702e-14       1.258211225939e-13       1.163584128741e-16       6.619462918559e-11       7.801669856751e-12      -9.107650959187e-15 
   49       2.160244067293e-10       1.710789772411e-14       9.954174240726e-14       1.212842479708e-16       6.331639616071e-11       7.491489951420e-12      -7.488210767507e-15 
   50       2.191088104500e-10       1.824499510771e-14       7.152337819795e-14       1.263141107248e-16       6.059164722264e-11       7.198077782963e-12      -6.452958313437e-15 
   51       2.222274765745e-10       1.942608564357e-14       4.176612503112e-14       1.314477447865e-16       5.801525546110e-11       6.920843166637e-12      -6.014865716173e-15 
   52       2.253804380953e-10       2.065141275543e-14       1.022870500529e-14       1.366848406637e-16       5.558474626761e-11       6.659305502228e-12      -6.065882786494e-15 
   53       2.285655112935e-10       2.192116739819e-14      -2.313502861754e-14       1.420250341300e-16       5.329210837160e-11       6.412339861375e-12      -6.472342183489e-15 
   54       2.317781236137e-10       2.323548666671e-14      -5.837648037480e-14       1.474679039824e-16       5.112342139101e-11       6.178134215961e-12      -7.073602010604e-15 
   55       2.350134093357e-10       2.459441416908e-14      -9.554584651995e-14       1.530130178502e-16       4.906309332223e-11       5.954723570632e-12      -7.712755608978e-15 
   56       2.382735005642e-10       2.599777280584e-14      -1.346699446516e-13       1.586600880776e-16       4.710865898201e-11       5.741845730264e-12      -8.340804384632e-15 
   57       2.415617459859e-10       2.744525794966e-14      -1.757695577871e-13       1.644088506397e-16       4.525900544177e-11       5.539471627138e-12      -8.935986148297e-15 
   58       2.448805198155e-10       2.893647009377e-14      -2.188659260975e-13       1.702590201244e-16       4.350989553488e-11       5.347248954806e-12      -9.473869576707e-15 
   59       2.482311380255e-10       3.047091197105e-14      -2.639808687902e-13       1.762102893637e-16       4.185377501521e-11       5.164481873262e-12      -9.927246179958e-15 
   60       2.516137745770e-10       3.204798567323e-14      -3.111369059924e-13       1.822623290636e-16       4.027957971577e-11       4.990110714118e-12      -1.026602226887e-14 
   61       2.550281731180e-10       3.366706945660e-14      -3.603528576546e-13       1.884148551643e-16       3.877580280259e-11       4.823026310942e-12      -1.046694307959e-14 
   62       2.584761582679e-10       3.532777482245e-14      -4.116292101399e-13       1.946678494219e-16       3.734093732603e-11       4.663141350479e-12      -1.054556013919e-14 
   63       2.619595419324e-10       3.702974229156e-14      -4.649596663442e-13       2.010213879084e-16       3.597504607894e-11       4.510524578582e-12      -1.053128026778e-14 
   64       2.654793202041e-10       3.877256646410e-14      -5.203353576348e-13       2.074755793964e-16       3.467662070516e-11       4.365077909387e-12      -1.045836648877e-14 
   65       2.690356148328e-10       4.055579566713e-14      -5.777448222228e-13       2.140305671383e-16       3.344249229846e-11       4.226526747893e-12      -1.036614196316e-14 
   66       2.726276146948e-10       4.237893160214e-14      -6.371739835354e-13       2.206865306467e-16       3.226774200152e-11       4.094410312534e-12      -1.029919392382e-14 
   67       2.762535172631e-10       4.424142899261e-14      -6.986061285885e-13       2.274436874733e-16       3.114561160489e-11       3.968071957760e-12      -1.030757760977e-14 
   68       2.799114504319e-10       4.614259570079e-14      -7.620190475421e-13       2.343022862788e-16       3.006930528618e-11       3.846841737733e-12      -1.043392950662e-14 
   69       2.836025857216e-10       4.808127036409e-14      -8.273758276654e-13       2.412625804333e-16       2.903801860375e-11       3.730648685466e-12      -1.067131903630e-14 
   70       2.873285536432e-10       5.005607850602e-14      -8.946321465634e-13       2.483248522386e-16       2.805197614494e-11       3.619515782648e-12      -1.099718362680e-14 
   71       2.910904863009e-10       5.206552344150e-14      -9.637388534029e-13       2.554894226946e-16       2.711060817683e-11       3.513374020217e-12      -1.138553523911e-14 
   72       2.948889839347e-10       5.410798337878e-14      -1.034641874681e-12       2.627566530560e-16       2.621250961193e-11       3.412057637589e-12      -1.180682950118e-14 
   73       2.987240814636e-10       5.618170852153e-14      -1.107282119994e-12       2.701269463890e-16       2.535539897396e-11       3.315299361894e-12      -1.222783484179e-14 
   74       3.025952150278e-10       5.828481817074e-14      -1.181595387804e-12       2.776007491284e-16       2.453607736354e-11       3.222725647199e-12      -1.261150162449e-14 
   75       3.065011885322e-10       6.041529782677e-14      -1.257512271211e-12       2.851785526346e-16       2.375038742397e-11       3.133851913742e-12      -1.291683128154e-14 
   76       3.104408050669e-10       6.257116420082e-14      -1.334968207006e-12       2.928608132246e-16       2.299424338394e-11       3.048203279609e-12      -1.310822444980e-14 
   77       3.144149680588e-10       6.475100139471e-14      -1.413935946748e-12       3.006476919900e-16       2.226702874437e-11       2.965712696778e-12      -1.318578269001e-14 
   78       3.184249042706e-10       6.695351768524e-14      -1.494398863252e-12       3.085392701418e-16       2.156874650377e-11       2.886387105055e-12      -1.316032034719e-14 
   79       3.224715134110e-10       6.917738682498e-14      -1.576341444529e-12       3.165356262137e-16       2.089898428457e-11       2.810186228379e-12      -1.304443823331e-14 
   80       3.265553483115e-10       7.142124858744e-14      -1.659749407546e-12       3.246368359477e-16       2.025689526215e-11       2.737020387373e-12      -1.285258713581e-14 
   81       3.306765951032e-10       7.368370931215e-14      -1.744609811994e-12       3.328429721784e-16       1.964117909385e-11       2.666748311902e-12      -1.260113132616e-14 
   82       3.348350533932e-10       7.596334244974e-14      -1.830911174049e-12       3.411541047191e-16       1.905006284804e-11       2.599174953622e-12      -1.230841206835e-14 
   83       3.390301164419e-10       7.825868910712e-14      -1.918643580140e-12       3.495703002461e-16       1.848128193310e-11       2.534049298541e-12      -1.199481112746e-14 
   84       3.432611118023e-10       8.056819280871e-14      -2.007787782389e-12       3.580916361959e-16       1.793262922811e-11       2.471125114425e-12      -1.167911160625e-14 
   85       3.475284315482e-10       8.288999015971e-14      -2.098280158672e-12       3.667182453531e-16       1.740374884555e-11       2.410359555536e-12      -1.136674816693e-14 
   86       3.518325539400e-10       8.522208631732e-14      -2.190042125254e-12       3.754502784778e-16       1.689460615336e-11       2.351743624863e-12      -1.105971632822e-14 
   87       3.561736860586e-10       8.756241713681e-14      -2.282990568268e-12       3.842878910703e-16       1.640493663173e-11       2.295241053555e-12      -1.076010320982e-14 
   88       3.605517500401e-10       8.990884861104e-14      -2.377037772303e-12       3.932312434916e-16       1.593423635174e-11       2.240787171208e-12      -1.047008881115e-14 
   89       3.649663693108e-10       9.225917630994e-14      -2.472091348986e-12       4.022805010843e-16       1.548175245404e-11       2.188287776145e-12      -1.019194729015e-14 
   90       3.694168548218e-10       9.461112482004e-14      -2.568054165560e-12       4.114358342929e-16       1.504647362741e-11       2.137618005699e-12      -9.928048242002e-15 
   91       3.739021912844e-10       9.696234718394e-14      -2.664824273472e-12       4.206974187845e-16       1.462712058748e-11       2.088621206498e-12      -9.680857977869e-15 
   92       3.784210234046e-10       9.931042433985e-14      -2.762294836957e-12       4.300654355697e-16       1.422213655529e-11       2.041107804744e-12      -9.452940803688e-15 
   93       3.829720639798e-10       1.016529575728e-13      -2.860362800128e-12       4.395401666164e-16       1.383005581928e-11       1.994901817264e-12      -9.246363881080e-15 
   94       3.875554182971e-10       1.039878629910e-13      -2.958956534509e-12       4.491222978802e-16       1.345069351015e-11       1.949990840350e-12      -9.060806643142e-15 
   95       3.921714344012e-10       1.063131205090e-13      -3.058012237000e-12       4.588126622852e-16       1.308411799681e-11       1.906396635479e-12      -8.895168075883e-15 
   96       3.968202911136e-10       1.086266854879e-13      -3.157465609752e-12       4.686121497031e-16       1.273028447374e-11       1.864129029161e-12      -8.748130984830e-15 
   97       4.015019900579e-10       1.109264894526e-13      -3.257251908702e-12       4.785217083854e-16       1.238903062956e-11       1.823185437173e-12      -8.618155086856e-15 
   98       4.062163476860e-10       1.132104408073e-13      -3.357305992106e-12       4.885423463942e-16       1.206007231553e-11       1.783550388800e-12      -8.503470102006e-15 
   99       4.109629873035e-10       1.154764255524e-13      -3.457562369079e-12       4.986751330339e-16       1.174299921411e-11       1.745195051076e-12      -8.402068845320e-15 
  100       4.157413310958e-10       1.177223080001e-13      -3.557955248124e-12       5.089212002829e-16       1.143727050742e-11       1.708076753025e-12      -8.311700318656e-15 
  101       4.205505921533e-10       1.199459314911e-13      -3.658418585670e-12       5.192817442246e-16       1.114221054586e-11       1.672138509896e-12      -8.229862802521e-15 
  102       4.253897664975e-10       1.221451191110e-13      -3.758886134607e-12       5.297580264791e-16       1.085700451655e-11       1.637308547409e-12      -8.153796947891e-15 
  103       4.302576251068e-10       1.243176744060e-13      -3.859291492821e-12       5.403513756348e-16       1.058069411191e-11       1.603499825990e-12      -8.080478868035e-15 
  104       4.351529669640e-10       1.264614154333e-13      -3.959565753720e-12       5.510630714499e-16       1.031239431253e-11       1.570630548080e-12      -8.007211626746e-15 
  105       4.400754343059e-10       1.285742806065e-13      -4.059629991811e-12       5.618939765605e-16       1.005198641629e-11       1.538689859745e-12      -7.933505580347e-15 
  106       4.450247931484e-10       1.306542385502e-13      -4.159401847794e-12       5.728448574586e-16       9.799510988095e-12       1.507680178764e-12      -7.859440346140e-15 
  107       4.500006770546e-10       1.326992571124e-13      -4.258797857836e-12       5.839164974211e-16       9.554953226776e-12       1.477596761888e-12      -7.785088760078e-15 
