# dimensionless total lensed [l(l+1)/2pi] C_l's
# for l=2 to 2500, i.e. number of multipoles equal to 2499
#
# -> if you prefer output in CAMB/HealPix/LensPix units/order, set 'format' to 'camb' in input file
# -> if you don't want to see such a header, set 'headers' to 'no' in input file
# -> for CMB lensing (phi), these are C_l^phi-phi for the lensing potential.
#    Remember the conversion factors:
#    C_l^dd (deflection) = l(l+1) C_l^phi-phi
#    C_l^gg (shear/convergence) = 1/4 (l(l+1))^2 C_l^phi-phi
#
# 1:l     2:TT                     3:EE                     4:TE                     5:BB                     6:phiphi                 7:TPhi                   8:Ephi               
    2       1.742736968688e-10       7.642684287074e-15       5.080225011016e-13       2.853837557884e-19       9.470088861474e-09       5.820800523195e-10      -2.716957180608e-12 
    3       1.629238109705e-10       1.193538157998e-14       6.231372185735e-13       5.709880503329e-19       5.865298274516e-09       4.125341006517e-10      -2.299398009029e-12 
    4       1.523576055026e-10       1.276016103146e-14       6.277010804843e-13       9.521297274545e-19       4.085966451497e-09       3.122751409243e-10      -1.743017487639e-12 
    5       1.442522658204e-10       1.069381620438e-14       5.718895503493e-13       1.429083320219e-18       3.050239269973e-09       2.466890287362e-10      -1.206771537778e-12 
    6       1.384001531761e-10       7.407667499288e-15       4.891626746351e-13       2.002175830329e-18       2.381932356538e-09       2.006864872311e-10      -7.438314112998e-13 
    7       1.343218940694e-10       4.424209418498e-15       4.015747319796e-13       2.671776882821e-18       1.920130331731e-09       1.668363100037e-10      -3.777110566570e-13 
    8       1.316672406888e-10       2.477321286524e-15       3.216469366623e-13       3.438287793613e-18       1.585068316923e-09       1.410946210501e-10      -1.142097382143e-13 
    9       1.300571636715e-10       1.548608311157e-15       2.560702336791e-13       4.302129970686e-18       1.333437051482e-09       1.210487834569e-10       5.271664632321e-14 
   10       1.292655040378e-10       1.237914027421e-15       2.076341649967e-13       5.263733093227e-18       1.139489080759e-09       1.051288847383e-10       1.372876172026e-13 
   11       1.290888807838e-10       1.138893747494e-15       1.762512232511e-13       6.323523518579e-18       9.631261246570e-10       9.257498285577e-11       1.580878869740e-13 
   12       1.293743045549e-10       1.033234161958e-15       1.598769829655e-13       7.481913354307e-18       8.413742475854e-10       8.182203417677e-11       1.367652496971e-13 
   13       1.300229465239e-10       8.908120787813e-16       1.553200003730e-13       8.739290602522e-18       7.414199494582e-10       7.286020417870e-11       9.200705910000e-14 
   14       1.309957357403e-10       7.687989298732e-16       1.589572331609e-13       1.009601073708e-17       6.582678849292e-10       6.546941992710e-11       4.021664584807e-14 
   15       1.321936970676e-10       7.147259757847e-16       1.673549960315e-13       1.155239001332e-17       5.882891752278e-10       5.904140853459e-11      -7.123066420484e-15 
   16       1.335553755822e-10       7.282099202349e-16       1.777428177099e-13       1.310870073700e-17       5.287922185327e-10       5.351523571456e-11      -4.244146561050e-14 
   17       1.350913372516e-10       7.765099595624e-16       1.882187127271e-13       1.476516863726e-17       4.777570343277e-10       4.875717791096e-11      -6.265187966875e-14 
   18       1.367725597441e-10       8.267065381339e-16       1.976393636754e-13       1.652197137896e-17       4.334666150923e-10       4.459775504689e-11      -6.834844186331e-14 
   19       1.385920707130e-10       8.766376276218e-16       2.058105540362e-13       1.837924533529e-17       3.952149749757e-10       4.095638456620e-11      -6.227085203022e-14 
   20       1.404889916984e-10       9.360463589634e-16       2.128865769589e-13       2.033707808187e-17       3.615296623402e-10       3.768551626709e-11      -4.904864626539e-14 
   21       1.424689948062e-10       1.021501880574e-15       2.193188045864e-13       2.239552888473e-17       3.318807437155e-10       3.476404336463e-11      -3.275016875633e-14 
   22       1.445229263808e-10       1.150627537821e-15       2.257243229863e-13       2.455461983959e-17       3.055572049889e-10       3.216596315704e-11      -1.769178446431e-14 
   23       1.466520814402e-10       1.322852728386e-15       2.325684398189e-13       2.681436053050e-17       2.821965432786e-10       2.986254601964e-11      -6.268549841587e-15 
   24       1.488364816355e-10       1.530284068018e-15       2.402214348490e-13       2.917473911078e-17       2.612584400680e-10       2.779445108189e-11      -6.429031551705e-17 
   25       1.510764854699e-10       1.768264166498e-15       2.486665188740e-13       3.163575135009e-17       2.424959691344e-10       2.593041982834e-11       9.845772531088e-16 
   26       1.533620247469e-10       2.032947543703e-15       2.576660943793e-13       3.419738978571e-17       2.255688693326e-10       2.423206878408e-11      -2.157069314653e-15 
   27       1.556961955672e-10       2.324797716034e-15       2.667945096632e-13       3.685966926463e-17       2.102740944990e-10       2.269126685765e-11      -7.926138499276e-15 
   28       1.580746895390e-10       2.645047533088e-15       2.755041934465e-13       3.962261988800e-17       1.963481392280e-10       2.129713695992e-11      -1.440174400604e-14 
   29       1.605042480131e-10       2.992408566324e-15       2.833498960742e-13       4.248631710760e-17       1.837195971510e-10       2.003861968384e-11      -2.037360632852e-14 
   30       1.629802193530e-10       3.364175558592e-15       2.898431083554e-13       4.545086392786e-17       1.722523666982e-10       1.888994963160e-11      -2.465690220864e-14 
   31       1.654863508421e-10       3.757971267578e-15       2.944990891689e-13       4.851639060736e-17       1.617120250226e-10       1.781618060703e-11      -2.614459320204e-14 
   32       1.680298532602e-10       4.176353822173e-15       2.972241272470e-13       5.168307604867e-17       1.520440704679e-10       1.681631265568e-11      -2.501358221034e-14 
   33       1.706165144630e-10       4.624012708757e-15       2.980767048670e-13       5.495114069854e-17       1.431802325906e-10       1.589451684604e-11      -2.199196740192e-14 
   34       1.732431658033e-10       5.105849954421e-15       2.971672219646e-13       5.832084103702e-17       1.349965211252e-10       1.504889824975e-11      -1.797555045867e-14 
   35       1.759082041037e-10       5.624180397494e-15       2.946408783340e-13       6.179245619917e-17       1.274508072175e-10       1.427382529804e-11      -1.370461719618e-14 
   36       1.786026224459e-10       6.180580654412e-15       2.906959894565e-13       6.536630262691e-17       1.204821729868e-10       1.355722194634e-11      -9.997687561775e-15 
   37       1.813129495686e-10       6.776436728817e-15       2.855347146311e-13       6.904272161330e-17       1.139995341319e-10       1.288407188556e-11      -7.640844943067e-15 
   38       1.840448640886e-10       7.412303833579e-15       2.791644569999e-13       7.282201283444e-17       1.079860631592e-10       1.225289018318e-11      -6.676234856992e-15 
   39       1.868060498210e-10       8.088312259239e-15       2.715323290610e-13       7.670448276669e-17       1.024227029315e-10       1.166399166977e-11      -6.878531630907e-15 
   40       1.895991302618e-10       8.804314568344e-15       2.625772552809e-13       8.069046469415e-17       9.725641690362e-11       1.111473363523e-11      -7.937635557524e-15 
   41       1.924231251195e-10       9.560102496940e-15       2.522131829322e-13       8.478028772596e-17       9.241865090767e-11       1.060074409143e-11      -9.484716211613e-15 
   42       1.952797891284e-10       1.035618794802e-14       2.402741824188e-13       8.897416758829e-17       8.789507105557e-11       1.012074037603e-11      -1.119521683994e-14 
   43       1.981683572230e-10       1.119324447217e-14       2.265500461809e-13       9.327228317280e-17       8.367353955091e-11       9.672822004357e-12      -1.270910424932e-14 
   44       2.010832503965e-10       1.207189082141e-14       2.107987768510e-13       9.767480564820e-17       7.972318505576e-11       9.252940754431e-12      -1.359778896649e-14 
   45       2.040174706326e-10       1.299268095974e-14       1.928042873427e-13       1.021818690924e-16       7.600540249535e-11       8.856288926253e-12      -1.348941779169e-14 
   46       2.069750379811e-10       1.395607678597e-14       1.725746243148e-13       1.067934732105e-16       7.251428633358e-11       8.482356151607e-12      -1.249851231285e-14 
   47       2.099615195347e-10       1.496246274269e-14       1.501997192896e-13       1.115095506009e-16       6.924574985677e-11       8.131097718243e-12      -1.091821136184e-14 
   48       2.129802996851e-10       1.601214944859e-14       1.257983646214e-13       1.163299909000e-16       6.618533314189e-11       7.801432228025e-12      -9.105756927252e-15 
   49       2.160323589386e-10       1.710537062263e-14       9.951971576293e-14       1.212546385736e-16       6.330743188749e-11       7.491162736945e-12      -7.486073290596e-15 
   50       2.191171222915e-10       1.824231590878e-14       7.150444347478e-14       1.262832900061e-16       6.058299991852e-11       7.197664781328e-12      -6.450454834391e-15 
   51       2.222357889851e-10       1.942324699010e-14       4.175227390296e-14       1.314156889552e-16       5.800691061428e-11       6.920353579979e-12      -6.011905969077e-15 
   52       2.253885242441e-10       2.064840767579e-14       1.022109051190e-14       1.366515260474e-16       5.557668941783e-11       6.658750211858e-12      -6.062433881660e-15 
   53       2.285733019135e-10       2.191798940191e-14      -2.313624548214e-14       1.419904371852e-16       5.328432571013e-11       6.411731505130e-12      -6.468438434403e-15 
   54       2.317857336063e-10       2.323212984502e-14      -5.837229167110e-14       1.474320013066e-16       5.111590040210e-11       6.177487265945e-12      -7.069355238530e-15 
   55       2.350211199584e-10       2.459087330631e-14      -9.553827314569e-14       1.529757861825e-16       4.905582297679e-11       5.954053961748e-12      -7.708345493178e-15 
   56       2.382815925303e-10       2.599404351540e-14      -1.346609560666e-13       1.586215042664e-16       4.710162836256e-11       5.741169009517e-12      -8.336402050202e-15 
   57       2.415704468460e-10       2.744133679993e-14      -1.757607235981e-13       1.643688916356e-16       4.525220361912e-11       5.538802215377e-12      -8.931728767852e-15 
   58       2.448899932889e-10       2.893235473348e-14      -2.188583359282e-13       1.702176629839e-16       4.350331192186e-11       5.346599809124e-12      -9.469853639573e-15 
   59       2.482414728252e-10       3.046660125968e-14      -2.639750483406e-13       1.761675112518e-16       4.184739974285e-11       5.163864132271e-12      -9.923520442979e-15 
   60       2.516249727273e-10       3.204347981645e-14      -3.111327292860e-13       1.822181072578e-16       4.027340403191e-11       4.989533326093e-12      -1.026258038883e-14 
   61       2.550401561740e-10       3.366236977010e-14      -3.603495817300e-13       1.883691670419e-16       3.876981913090e-11       4.822495879499e-12      -1.046372983268e-14 
   62       2.584888330798e-10       3.532288227195e-14      -4.116259178143e-13       1.946206724000e-16       3.733513816655e-11       4.662662728633e-12      -1.054252268572e-14 
   63       2.619728193918e-10       3.702465698968e-14      -4.649553861539e-13       2.009726994206e-16       3.596942384570e-11       4.510100852781e-12      -1.052838396355e-14 
   64       2.654931168384e-10       3.876728751282e-14      -5.203290657938e-13       2.074253568834e-16       3.467116791358e-11       4.364710154222e-12      -1.045559780365e-14 
   65       2.690498544760e-10       4.055032099339e-14      -5.777354447757e-13       2.139787880386e-16       3.343720176368e-11       4.226213771128e-12      -1.036351152244e-14 
   66       2.726422302371e-10       4.237325778651e-14      -6.371603987051e-13       2.206331723856e-16       3.226260704773e-11       4.094148390458e-12      -1.029673967242e-14 
   67       2.762684524766e-10       4.423555109106e-14      -6.985871693178e-13       2.273887274524e-16       3.114062628556e-11       3.967854560856e-12      -1.030536809926e-14 
   68       2.799266603280e-10       4.613650763116e-14      -7.619935523254e-13       2.342457018661e-16       3.006446439300e-11       3.846659900903e-12      -1.043205749803e-14 
   69       2.836180319830e-10       4.807496713491e-14      -8.273428471769e-13       2.412043489569e-16       2.903331696745e-11       3.730493485244e-12      -1.066986349705e-14 
   70       2.873442041178e-10       5.004955696560e-14      -8.945910265510e-13       2.482649509767e-16       2.804740851976e-11       3.619379118923e-12      -1.099619712055e-14 
   71       2.911063159905e-10       5.205878249601e-14      -9.636892736801e-13       2.554278288638e-16       2.710616933971e-11       3.513248788425e-12      -1.138504043035e-14 
   72       2.949049760222e-10       5.410102421808e-14      -1.034583889543e-12       2.626933437989e-16       2.620819446696e-11       3.411937907952e-12      -1.180681553171e-14 
   73       2.987402283776e-10       5.617453485261e-14      -1.107216200057e-12       2.700618987616e-16       2.535120266208e-11       3.315180565707e-12      -1.222825357933e-14 
   74       3.026115195453e-10       5.827743645902e-14      -1.181522463272e-12       2.775339400868e-16       2.453199537754e-11       3.222604770179e-12      -1.261226378323e-14 
   75       3.065176649190e-10       6.040771754498e-14      -1.257433776564e-12       2.851099590214e-16       2.374641572870e-11       3.133727696416e-12      -1.291780241469e-14 
   76       3.104574780695e-10       6.256339698783e-14      -1.334885993390e-12       2.927904117730e-16       2.299037841065e-11       3.048076085834e-12      -1.310923426550e-14 
   77       3.144318649139e-10       6.474305669744e-14      -1.413851766451e-12       3.005754593858e-16       2.226326696922e-11       2.965583301167e-12      -1.318667742513e-14 
   78       3.184420524864e-10       6.694540128717e-14      -1.494314206292e-12       3.084651830372e-16       2.156508437554e-11       2.886256376245e-12      -1.316097973900e-14 
   79       3.224889406156e-10       6.916910040106e-14      -1.576257500739e-12       3.164596612238e-16       2.089541827934e-11       2.810055133841e-12      -1.304477988177e-14 
   80       3.265730820940e-10       7.141278924417e-14      -1.659667027349e-12       3.245589696469e-16       2.025342194053e-11       2.736889998326e-12      -1.285257101376e-14 
   81       3.306946628479e-10       7.367506911285e-14      -1.744529465857e-12       3.327631810969e-16       1.963779516084e-11       2.666619808322e-12      -1.260076443728e-14 
   82       3.348534821073e-10       7.595450792510e-14      -1.830832910620e-12       3.410723653390e-16       1.904676521540e-11       2.599049629363e-12      -1.230775325304e-14 
   83       3.390489325752e-10       7.824964075087e-14      -1.918566983068e-12       3.494865889977e-16       1.847806778436e-11       2.533928566545e-12      -1.199397601647e-14 
   84       3.432803403889e-10       8.055890659068e-14      -2.007712024401e-12       3.580059294532e-16       1.792949601240e-11       2.471010432449e-12      -1.167826310663e-14 
   85       3.475480931964e-10       8.288044550793e-14      -2.098204368839e-12       3.666305194276e-16       1.740069403896e-11       2.410252098031e-12      -1.136604046532e-14 
   86       3.518526636025e-10       8.521226868134e-14      -2.189965492811e-12       3.753605096136e-16       1.689162721880e-11       2.351644166605e-12      -1.105927790616e-14 
   87       3.561942524252e-10       8.755231863331e-14      -2.282912352817e-12       3.841960554397e-16       1.640203105036e-11       2.295149927915e-12      -1.076003369314e-14 
   88       3.605727749119e-10       8.989846868872e-14      -2.376957314345e-12       3.931373171904e-16       1.593140165575e-11       2.240704227182e-12      -1.047045572155e-14 
   89       3.649878469562e-10       9.224852243384e-14      -2.472008080798e-12       4.021844601270e-16       1.547898626070e-11       2.188212334147e-12      -1.019278269891e-14 
   90       3.694387713145e-10       9.460021317513e-14      -2.567967622410e-12       4.113376546083e-16       1.504377367452e-11       2.137548812123e-12      -9.929345325964e-15 
   91       3.739245238228e-10       9.695120339815e-14      -2.664734105175e-12       4.205970762107e-16       1.462448477013e-11       2.088556387038e-12      -9.682567477606e-15 
   92       3.784437396131e-10       9.929908422639e-14      -2.762200819763e-12       4.299629058488e-16       1.421956296397e-11       2.041044816483e-12      -9.454967383824e-15 
   93       3.829951235512e-10       1.016414655328e-13      -2.860264831798e-12       4.394354253730e-16       1.382754272860e-11       1.994837582295e-12      -9.248573016853e-15 
   94       3.875787821008e-10       1.039762629529e-13      -2.958854575284e-12       4.490153205459e-16       1.344823920811e-11       1.949922457917e-12      -9.063065108966e-15 
   95       3.921950672200e-10       1.063014532389e-13      -3.057906297124e-12       4.587034240680e-16       1.308172075190e-11       1.906321600731e-12      -8.897355728327e-15 
   96       3.968441621346e-10       1.086149881468e-13      -3.157355753534e-12       4.685006255734e-16       1.272794255126e-11       1.864045278137e-12      -8.750142419274e-15 
   97       4.015260733786e-10       1.109147951400e-13      -3.257138258683e-12       4.784078730612e-16       1.238674230853e-11       1.823091393063e-12      -8.619901342176e-15 
   98       4.062406228333e-10       1.131987780921e-13      -3.357188733327e-12       4.884261743260e-16       1.205783590627e-11       1.783445009481e-12      -8.504880413286e-15 
   99       4.109874397676e-10       1.154648179907e-13      -3.457441753453e-12       4.985565983896e-16       1.174081307642e-11       1.745077877917e-12      -8.403092444591e-15 
  100       4.157659528779e-10       1.177107736400e-13      -3.557831598913e-12       5.088002769317e-16       1.143513306951e-11       1.707947960963e-12      -8.312308283675e-15 
  101       4.205753823276e-10       1.199344823645e-13      -3.658292302065e-12       5.191584057214e-16       1.114012032374e-11       1.671998958794e-12      -8.230049953563e-15 
  102       4.254147317874e-10       1.221337607120e-13      -3.758757696412e-12       5.296322460479e-16       1.085496013422e-11       1.637159834673e-12      -8.153583792582e-15 
  103       4.302827804746e-10       1.243064051569e-13      -3.859161465237e-12       5.402231261521e-16       1.057869432211e-11       1.603344340471e-12      -8.079913594216e-15 
  104       4.351783343279e-10       1.264502277222e-13      -3.959434773248e-12       5.509323254602e-16       1.031043798673e-11       1.570471336075e-12      -8.006366190739e-15 
  105       4.401010353162e-10       1.285631668108e-13      -4.059498692367e-12       5.617607063927e-16       1.005007243633e-11       1.538529895658e-12      -7.932453069636e-15 
  106       4.450506471246e-10       1.306431927266e-13      -4.159270838689e-12       5.727090352551e-16       9.797638224031e-12       1.507522152684e-12      -7.858248615857e-15 
  107       4.500268007315e-10       1.326882751667e-13      -4.258667719920e-12       5.837780951345e-16       9.553120545220e-12       1.477443048358e-12      -7.783819779034e-15 
