# dimensionless total [l(l+1)/2pi] C_l's
# for l=2 to 3000, i.e. number of multipoles equal to 2999
#
# -> if you prefer output in CAMB/HealPix/LensPix units/order, set 'format' to 'camb' in input file
# -> if you don't want to see such a header, set 'headers' to 'no' in input file
# -> for CMB lensing (phi), these are C_l^phi-phi for the lensing potential.
#    Remember the conversion factors:
#    C_l^dd (deflection) = l(l+1) C_l^phi-phi
#    C_l^gg (shear/convergence) = 1/4 (l(l+1))^2 C_l^phi-phi
#
# 1:l     2:TT                     3:EE                     4:TE                     5:BB                     6:phiphi                 7:TPhi                   8:Ephi               
    2       1.742730096094e-10       7.642394434036e-15       5.080221436095e-13       0.000000000000e+00       9.470080176007e-09       5.820799084602e-10      -2.716956182329e-12 
    3       1.629225265330e-10       1.193480350293e-14       6.231368234048e-13       0.000000000000e+00       5.865292339421e-09       4.125339679276e-10      -2.299397153973e-12 
    4       1.523555315091e-10       1.275920107520e-14       6.277007424783e-13       0.000000000000e+00       4.085962489585e-09       3.122750218863e-10      -1.743016817824e-12 
    5       1.442492109488e-10       1.069238027022e-14       5.718893518938e-13       0.000000000000e+00       3.050236821799e-09       2.466889234031e-10      -1.206771043133e-12 
    6       1.383959298254e-10       7.405660332454e-15       4.891627005254e-13       0.000000000000e+00       2.381930756112e-09       2.006863963385e-10      -7.438310652779e-13 
    7       1.343163185032e-10       4.421534513862e-15       4.015750803705e-13       0.000000000000e+00       1.920129105603e-09       1.668362310862e-10      -3.777108326572e-13 
    8       1.316601335875e-10       2.473881197761e-15       3.216477219801e-13       0.000000000000e+00       1.585067267197e-09       1.410945487745e-10      -1.142096172491e-13 
    9       1.300483528340e-10       1.544305017948e-15       2.560715867057e-13       0.000000000000e+00       1.333436111197e-09       1.210487154489e-10       5.271667844186e-14 
   10       1.292548217851e-10       1.232649193725e-15       2.076362481648e-13       0.000000000000e+00       1.139488220859e-09       1.051288231732e-10       1.372875766248e-13 
   11       1.290761654713e-10       1.132568853323e-15       1.762542359016e-13       0.000000000000e+00       9.631254808509e-10       9.257493379180e-11       1.580877972210e-13 
   12       1.293593994109e-10       1.025750507754e-15       1.598811620625e-13       0.000000000000e+00       8.413736722983e-10       8.182199082312e-11       1.367651349365e-13 
   13       1.300057012116e-10       8.820706805235e-16       1.553256231787e-13       0.000000000000e+00       7.414194318889e-10       7.286016449523e-11       9.200694442109e-14 
   14       1.309760068873e-10       7.587004139288e-16       1.589646106383e-13       0.000000000000e+00       6.582674164521e-10       6.546938477996e-11       4.021655177642e-14 
   15       1.321713492406e-10       7.031705643419e-16       1.673644741309e-13       0.000000000000e+00       5.882887489077e-10       5.904137814165e-11      -7.123126543428e-15 
   16       1.335302750959e-10       7.150975005029e-16       1.777547767522e-13       0.000000000000e+00       5.287918286490e-10       5.351520703565e-11      -4.244148691685e-14 
   17       1.350633566081e-10       7.617402118681e-16       1.882335607404e-13       0.000000000000e+00       4.777566761644e-10       4.875714908401e-11      -6.265186540669e-14 
   18       1.367415783470e-10       8.101790604990e-16       1.976575380099e-13       0.000000000000e+00       4.334662848556e-10       4.459772945633e-11      -6.834840191352e-14 
   19       1.385579705622e-10       8.582519636829e-16       2.058325173840e-13       0.000000000000e+00       3.952146690797e-10       4.095636387963e-11      -6.227079884256e-14 
   20       1.404516558456e-10       9.157020579283e-16       2.129128152222e-13       0.000000000000e+00       3.615293781140e-10       3.768549795138e-11      -4.904859243823e-14 
   21       1.424283104957e-10       9.990985570716e-16       2.193498333470e-13       0.000000000000e+00       3.318804787598e-10       3.476402547468e-11      -3.275012356769e-14 
   22       1.444787858167e-10       1.126064944566e-15       2.257606886122e-13       0.000000000000e+00       3.055569572831e-10       3.216594599848e-11      -1.769175186606e-14 
   23       1.466043797677e-10       1.296030815910e-15       2.326107129291e-13       0.000000000000e+00       2.821963109992e-10       2.986253030955e-11      -6.268530250557e-15 
   24       1.487851157573e-10       1.501103058146e-15       2.402702067612e-13       0.000000000000e+00       2.612582217234e-10       2.779443718934e-11      -6.428112614703e-17 
   25       1.510213529371e-10       1.736624620021e-15       2.487224002248e-13       0.000000000000e+00       2.424957633780e-10       2.593040710121e-11       9.845794905688e-16 
   26       1.533030232218e-10       1.998750425970e-15       2.577297136149e-13       0.000000000000e+00       2.255686750289e-10       2.423205560182e-11      -2.157070513017e-15 
   27       1.556332240528e-10       2.287944414385e-15       2.668665135806e-13       0.000000000000e+00       2.102739106317e-10       2.269125265370e-11      -7.926139591742e-15 
   28       1.580076486887e-10       2.605439897505e-15       2.755852464745e-13       0.000000000000e+00       1.963479649426e-10       2.129712276865e-11      -1.440174173657e-14 
   29       1.604330402591e-10       2.949948928734e-15       2.834406797897e-13       0.000000000000e+00       1.837194316285e-10       2.003860662126e-11      -2.037359864497e-14 
   30       1.629047489138e-10       3.318766773852e-15       2.899443203819e-13       0.000000000000e+00       1.722522092019e-10       1.888993833457e-11      -2.465688891239e-14 
   31       1.654065237555e-10       3.709516750282e-15       2.946114410147e-13       0.000000000000e+00       1.617118749670e-10       1.781617113171e-11      -2.614457601284e-14 
   32       1.679455776673e-10       4.124757536739e-15       2.973483393983e-13       0.000000000000e+00       1.520439272952e-10       1.681630460622e-11      -2.501356311747e-14 
   33       1.705277007706e-10       4.569179187213e-15       2.982135033667e-13       0.000000000000e+00       1.431800957815e-10       1.589450934589e-11      -2.199194808558e-14 
   34       1.731497268844e-10       5.047684323567e-15       2.973173352640e-13       0.000000000000e+00       1.349963902392e-10       1.504889004954e-11      -1.797553217735e-14 
   35       1.758100557814e-10       5.562588400997e-15       2.948050331711e-13       0.000000000000e+00       1.274506818376e-10       1.427381558571e-11      -1.370460079912e-14 
   36       1.784996838410e-10       6.115468675975e-15       2.908749070716e-13       0.000000000000e+00       1.204820527351e-10       1.355721071554e-11      -9.997673403267e-15 
   37       1.812051433238e-10       6.707711828870e-15       2.857291054817e-13       0.000000000000e+00       1.139994186914e-10       1.288405991888e-11      -7.640832855633e-15 
   38       1.839321163242e-10       7.339873832423e-15       2.793750100537e-13       0.000000000000e+00       1.079859522202e-10       1.225287830102e-11      -6.676224470525e-15 
   39       1.866882903133e-10       8.012085788090e-15       2.717597042689e-13       0.000000000000e+00       1.024225961939e-10       1.166398047409e-11      -6.878522454476e-15 
   40       1.894762927238e-10       8.724201107708e-15       2.628220771016e-13       0.000000000000e+00       9.725631410202e-11       1.111472344419e-11      -7.937626968058e-15 
   41       1.922951473134e-10       9.476012446327e-15       2.524760324825e-13       0.000000000000e+00       9.241855182318e-11       1.060073493086e-11      -9.484707499257e-15 
   42       1.951466123548e-10       1.026803280239e-14       2.405555857136e-13       0.000000000000e+00       8.789497547662e-11       1.012073217430e-11      -1.119520744639e-14 
   43       1.980299262692e-10       1.110093692607e-14       2.268504644825e-13       0.000000000000e+00       8.367344727229e-11       9.672814642553e-12      -1.270909387544e-14 
   44       2.009395136680e-10       1.197534484664e-14       2.111185975908e-13       0.000000000000e+00       7.972309589297e-11       9.252934060754e-12      -1.359777763182e-14 
   45       2.038683800858e-10       1.289181192912e-14       1.931438150316e-13       0.000000000000e+00       7.600531629065e-11       8.856282686088e-12      -1.348940582249e-14 
   46       2.068205483671e-10       1.385080174729e-14       1.729340723330e-13       0.000000000000e+00       7.251420293125e-11       8.482350170909e-12      -1.249850008177e-14 
   47       2.098015881430e-10       1.485270059090e-14       1.505792003993e-13       0.000000000000e+00       6.924566910196e-11       8.131091849160e-12      -1.091819920779e-14 
   48       2.128148862752e-10       1.589782106210e-14       1.261978807675e-13       0.000000000000e+00       6.618525488874e-11       7.801426380624e-12      -9.105745143097e-15 
   49       2.158614256700e-10       1.698639900424e-14       9.993914750724e-14       0.000000000000e+00       6.330735600795e-11       7.491156891627e-12      -7.486062110183e-15 
   50       2.189406335913e-10       1.811862634665e-14       7.194354167020e-14       0.000000000000e+00       6.058292630520e-11       7.197658984116e-12      -6.450444420120e-15 
   51       2.220537112117e-10       1.929476727458e-14       4.221065965560e-14       0.000000000000e+00       5.800683916221e-11       6.920347879355e-12      -6.011896403209e-15 
   52       2.252008254966e-10       2.051506828347e-14       1.069824847116e-14       0.000000000000e+00       5.557662002270e-11       6.658744639364e-12      -6.062425153620e-15 
   53       2.283799518902e-10       2.177972367068e-14      -2.264097648190e-14       0.000000000000e+00       5.328425827281e-11       6.411726072250e-12      -6.468430426134e-15 
   54       2.315867034596e-10       2.308887415443e-14      -5.785972821281e-14       0.000000000000e+00       5.111583483357e-11       6.177481960831e-12      -7.069347709170e-15 
   55       2.348163822838e-10       2.444256719766e-14      -9.500939161810e-14       0.000000000000e+00       4.905575919953e-11       5.954048751147e-12      -7.708338100211e-15 
   56       2.380711218100e-10       2.584062960139e-14      -1.341168793359e-13       0.000000000000e+00       4.710156629986e-11       5.741163858174e-12      -8.336394492250e-15 
   57       2.413542195425e-10       2.728276084178e-14      -1.752027214222e-13       0.000000000000e+00       4.525214319406e-11       5.538797092035e-12      -8.931720834839e-15 
   58       2.446679878091e-10       2.876856578166e-14      -2.182878304747e-13       0.000000000000e+00       4.350325305994e-11       5.346594687602e-12      -9.469845229108e-15 
   59       2.480136694846e-10       3.029755179745e-14      -2.633936197350e-13       0.000000000000e+00       4.184734237479e-11       5.163858992596e-12      -9.923511577497e-15 
   60       2.513913537152e-10       3.186912590606e-14      -3.105421211922e-13       0.000000000000e+00       4.027334809665e-11       4.989528155688e-12      -1.026257123349e-14 
   61       2.548007059262e-10       3.348267102332e-14      -3.597517034409e-13       0.000000000000e+00       3.876976457605e-11       4.822490674348e-12      -1.046372067651e-14 
   62       2.582435399802e-10       3.513780124088e-14      -4.110228348869e-13       0.000000000000e+00       3.733508494016e-11       4.662657494231e-12      -1.054251380109e-14 
   63       2.617216764458e-10       3.683415901142e-14      -4.643493199730e-13       0.000000000000e+00       3.596937189509e-11       4.510095605349e-12      -1.052837556118e-14 
   64       2.652361219782e-10       3.857134071826e-14      -5.197223963504e-13       0.000000000000e+00       3.467111718674e-11       4.364704922051e-12      -1.045559002239e-14 
   65       2.687870108795e-10       4.034889631313e-14      -5.771307133652e-13       0.000000000000e+00       3.343715221076e-11       4.226208595969e-12      -1.036350441857e-14 
   66       2.723735466600e-10       4.216632895387e-14      -6.365603105452e-13       0.000000000000e+00       3.226255862261e-11       4.094143328970e-12      -1.029673320853e-14 
   67       2.759939435981e-10       4.402309464209e-14      -6.979945960858e-13       0.000000000000e+00       3.114057894753e-11       3.967849686100e-12      -1.030536213267e-14 
   68       2.796463469170e-10       4.591850275855e-14      -7.614115362608e-13       0.000000000000e+00       3.006441810679e-11       3.846655297251e-12      -1.043205179464e-14 
   69       2.833319404537e-10       4.785139507553e-14      -8.267746104257e-13       0.000000000000e+00       2.903327169797e-11       3.730489221822e-12      -1.066985782813e-14 
   70       2.870523665953e-10       4.982040075419e-14      -8.940399761912e-13       0.000000000000e+00       2.804736423122e-11       3.619375240246e-12      -1.099619129266e-14 
   71       2.908087705674e-10       5.182402684732e-14      -9.631590051576e-13       0.000000000000e+00       2.710612599633e-11       3.513245311170e-12      -1.138503429120e-14 
   72       2.946017670231e-10       5.386065540241e-14      -1.034078190070e-12       0.000000000000e+00       2.620815203381e-11       3.411934817620e-12      -1.180680897623e-14 
   73       2.984314066320e-10       5.592854056480e-14      -1.106739051971e-12       0.000000000000e+00       2.535116110586e-11       3.315177813169e-12      -1.222824655598e-14 
   74       3.022971426693e-10       5.802580568080e-14      -1.181078047358e-12       0.000000000000e+00       2.453195466747e-11       3.222602268092e-12      -1.261225630054e-14 
   75       3.061977976054e-10       6.015044040080e-14      -1.257026475336e-12       0.000000000000e+00       2.374637583741e-11       3.133725315540e-12      -1.291779454799e-14 
   76       3.101321919059e-10       6.230046465343e-14      -1.334520396485e-12       0.000000000000e+00       2.299033931417e-11       3.048073664147e-12      -1.310922614839e-14 
   77       3.141012366684e-10       6.447446149252e-14      -1.413532682872e-12       0.000000000000e+00       2.226322864378e-11       2.965580694378e-12      -1.318666919108e-14 
   78       3.181061636604e-10       6.667113660576e-14      -1.494046670986e-12       0.000000000000e+00       2.156504679705e-11       2.886253474290e-12      -1.316097150410e-14 
   79       3.221478774503e-10       6.888916058022e-14      -1.576046779144e-12       0.000000000000e+00       2.089538142378e-11       2.810051865251e-12      -1.304477174211e-14 
   80       3.262269355765e-10       7.112716942723e-14      -1.659518619950e-12       0.000000000000e+00       2.025338578443e-11       2.736886334752e-12      -1.285256304274e-14 
   81       3.303435287148e-10       7.338376510742e-14      -1.744449112739e-12       0.000000000000e+00       1.963775968169e-11       2.666615769207e-12      -1.260075668282e-14 
   82       3.344974608476e-10       7.565751605559e-14      -1.830826596038e-12       0.000000000000e+00       1.904673039216e-11       2.599045286755e-12      -1.230774573466e-14 
   83       3.386881294316e-10       7.794695770572e-14      -1.918640940015e-12       0.000000000000e+00       1.847803359792e-11       2.533924050065e-12      -1.199396872236e-14 
   84       3.429148652976e-10       8.025052931141e-14      -2.007872728648e-12       0.000000000000e+00       1.792946244557e-11       2.471005919774e-12      -1.167825599740e-14 
   85       3.471780605321e-10       8.256637122342e-14      -2.098458499368e-12       0.000000000000e+00       1.740066107465e-11       2.410247758840e-12      -1.136603349942e-14 
   86       3.514781920837e-10       8.489249481129e-14      -2.190319920271e-12       0.000000000000e+00       1.689159483973e-11       2.351640145585e-12      -1.105927104709e-14 
   87       3.558154650737e-10       8.722684264202e-14      -2.283374137844e-12       0.000000000000e+00       1.640199923930e-11       2.295146341610e-12      -1.076002691017e-14 
   88       3.601897990105e-10       8.956728793436e-14      -2.377533705722e-12       0.000000000000e+00       1.593137039575e-11       2.240701160744e-12      -1.047044899045e-14 
   89       3.646008140035e-10       9.191163401313e-14      -2.472706513431e-12       0.000000000000e+00       1.547895553539e-11       2.188209837994e-12      -1.019277600274e-14 
   90       3.690478169781e-10       9.425761376347e-14      -2.568795715144e-12       0.000000000000e+00       1.504374346837e-11       2.137546898492e-12      -9.929338655857e-15 
   91       3.735297878891e-10       9.660288908512e-14      -2.665699658431e-12       0.000000000000e+00       1.462445506873e-11       2.088555026441e-12      -9.682560833562e-15 
   92       3.780453659355e-10       9.894505034676e-14      -2.763311813007e-12       0.000000000000e+00       1.421953375435e-11       2.041043934069e-12      -9.454960775569e-15 
   93       3.825932605652e-10       1.012817061097e-13      -2.861529411809e-12       0.000000000000e+00       1.382751399909e-11       1.994837063871e-12      -9.248566462490e-15 
   94       3.871735851442e-10       1.036107689206e-13      -2.960281015608e-12       0.000000000000e+00       1.344821094709e-11       1.949922186839e-12      -9.063058626675e-15 
   95       3.917866993162e-10       1.059302116934e-13      -3.059502981671e-12       0.000000000000e+00       1.308169294752e-11       1.906321468409e-12      -8.897349334014e-15 
   96       3.964327942362e-10       1.082379819533e-13      -3.159131168530e-12       0.000000000000e+00       1.272791519156e-11       1.864045185225e-12      -8.750136126324e-15 
   97       4.011118846159e-10       1.105320025303e-13      -3.259100984319e-12       0.000000000000e+00       1.238671538158e-11       1.823091250689e-12      -8.619895161195e-15 
   98       4.058238007685e-10       1.128101722529e-13      -3.359347435123e-12       0.000000000000e+00       1.205780940032e-11       1.783444740509e-12      -8.504874351842e-15 
   99       4.105681806547e-10       1.150703666411e-13      -3.459805173317e-12       0.000000000000e+00       1.174078698004e-11       1.745077418245e-12      -8.403086506945e-15 
  100       4.153444619274e-10       1.173104386001e-13      -3.560408545912e-12       0.000000000000e+00       1.143510737173e-11       1.707947260861e-12      -8.312302470503e-15 
  101       4.201518739771e-10       1.195282191136e-13      -3.661091642895e-12       0.000000000000e+00       1.114009501421e-11       1.671997984269e-12      -8.230044261677e-15 
  102       4.249894299773e-10       1.217215179369e-13      -3.761788345577e-12       0.000000000000e+00       1.085493520338e-11       1.637158568882e-12      -8.153578214639e-15 
  103       4.298559189298e-10       1.238881242909e-13      -3.862432374932e-12       0.000000000000e+00       1.057866976134e-11       1.603342785156e-12      -8.079908118420e-15 
  104       4.347501560907e-10       1.260258424894e-13      -3.962954932619e-12       0.000000000000e+00       1.031041378827e-11       1.570469509725e-12      -8.006360801528e-15 
  105       4.396717899092e-10       1.281326028097e-13      -4.063277156994e-12       0.000000000000e+00       1.005004859247e-11       1.538527821239e-12      -7.932447751463e-15 
  106       4.446205897726e-10       1.302063669619e-13      -4.163316733395e-12       0.000000000000e+00       9.797614726889e-12       1.507519854445e-12      -7.858243354281e-15 
  107       4.495961923048e-10       1.322450955555e-13      -4.262990232090e-12       0.000000000000e+00       9.553097386837e-12       1.477440551839e-12      -7.783814560870e-15 
