# Matter power spectrum P(k) at redshift z=0
# for k=1.00946e-05 to 130.37 h/Mpc,
# number of wavenumbers equal to 714
#    1:k (h/Mpc)              2:P (Mpc/h)^3        
       1.009464849392e-05       6.410242190472e+01 
       2.254595584416e-05       1.405380272472e+02 
       3.503816723294e-05       2.148612520239e+02 
       4.760268435468e-05       2.884535556179e+02 
       6.027139435890e-05       3.619277697976e+02 
       7.307693559436e-05       4.354974612967e+02 
       8.605297131448e-05       5.095683233234e+02 
       9.923447476341e-05       5.843623439685e+02 
       1.126580290891e-04       6.600570498714e+02 
       1.263621455605e-04       7.369518940898e+02 
       1.403876035795e-04       8.152866941401e+02 
       1.547778159539e-04       8.953135665824e+02 
       1.695792227905e-04       9.773026988462e+02 
       1.848417171445e-04       1.061512229277e+03 
       2.006191051407e-04       1.148235099915e+03 
       2.169696025972e-04       1.237773475692e+03 
       2.339563691054e-04       1.330467777461e+03 
       2.516480789239e-04       1.426660770653e+03 
       2.701195257346e-04       1.526744657347e+03 
       2.894522550830e-04       1.631114281508e+03 
       3.097352139111e-04       1.740225711831e+03 
       3.310654007132e-04       1.854550242422e+03 
       3.535484922061e-04       1.974610011603e+03 
       3.772994127619e-04       2.100956817021e+03 
       4.024428010618e-04       2.234187716763e+03 
       4.291133146229e-04       2.374936234297e+03 
       4.574556975369e-04       2.523877249851e+03 
       4.876245211381e-04       2.681718494326e+03 
       5.197834934539e-04       2.849196243742e+03 
       5.541042244227e-04       3.027065909179e+03 
       5.907643344400e-04       3.216090431970e+03 
       6.299448092965e-04       3.417022166890e+03 
       6.718265407378e-04       3.630584122566e+03 
       7.165860532352e-04       3.857444313833e+03 
       7.643905052204e-04       4.098190263970e+03 
       8.153921621100e-04       4.353300274987e+03 
       8.697226559257e-04       4.623112441227e+03 
       9.274874509320e-04       4.907802729653e+03 
       9.887609998824e-04       5.207360789804e+03 
       1.053583075995e-03       5.521577456918e+03 
       1.121956686855e-03       5.850041046961e+03 
       1.193847821462e-03       6.192146784676e+03 
       1.269187075031e-03       6.547108089321e+03 
       1.347872978076e-03       6.913951418322e+03 
       1.429776671316e-03       7.291632792014e+03 
       1.514747450523e-03       7.679018374268e+03 
       1.602618671174e-03       8.074909227246e+03 
       1.693213545248e-03       8.478088997861e+03 
       1.786350459668e-03       8.887349017256e+03 
       1.881847568904e-03       9.301517489906e+03 
       1.979526536666e-03       9.719471284021e+03 
       2.079215405112e-03       1.014015705079e+04 
       2.180750645487e-03       1.056259712792e+04 
       2.283978490652e-03       1.098588714753e+04 
       2.388755671666e-03       1.140921114528e+04 
       2.494949683712e-03       1.183182974208e+04 
       2.602438697858e-03       1.225307559130e+04 
       2.711111219785e-03       1.267235687303e+04 
       2.820865578879e-03       1.308914809759e+04 
       2.931609313536e-03       1.350298572131e+04 
       3.043258502730e-03       1.391347310731e+04 
       3.155737080483e-03       1.432024528298e+04 
       3.268976158968e-03       1.472298979631e+04 
       3.382913377512e-03       1.512145037012e+04 
       3.497492288292e-03       1.551538560212e+04 
       3.612661784761e-03       1.590460051759e+04 
       3.728375575478e-03       1.628892387298e+04 
       3.844591703630e-03       1.666820993947e+04 
       3.961272110993e-03       1.704234586341e+04 
       4.078382244082e-03       1.741122099698e+04 
       4.195890699678e-03       1.777476415964e+04 
       4.313768906639e-03       1.813289608141e+04 
       4.431990840826e-03       1.848557835722e+04 
       4.550532770055e-03       1.883276564446e+04 
       4.669373026086e-03       1.917442622350e+04 
       4.788491800896e-03       1.951053326848e+04 
       4.907870964669e-03       1.984111888929e+04 
       5.027493903171e-03       2.016615872795e+04 
       5.147345372394e-03       2.048566457924e+04 
       5.267411368582e-03       2.079964935982e+04 
       5.387679011919e-03       2.110812746737e+04 
       5.508136442378e-03       2.141112834268e+04 
       5.628772726370e-03       2.170868143874e+04 
       5.749577773000e-03       2.200079796507e+04 
       5.870542258865e-03       2.228752884332e+04 
       5.991657560450e-03       2.256890799798e+04 
       6.112915693289e-03       2.284497639916e+04 
       6.234309257161e-03       2.311576746111e+04 
       6.355831386653e-03       2.338132545448e+04 
       6.477475706524e-03       2.364168657945e+04 
       6.599236291355e-03       2.389690982477e+04 
       6.721107629027e-03       2.414705200571e+04 
       6.843084587634e-03       2.439212081285e+04 
       6.965162385466e-03       2.463221236498e+04 
       7.087336563750e-03       2.486734799737e+04 
       7.209602961865e-03       2.509756846467e+04 
       7.331957694789e-03       2.532294306166e+04 
       7.454397132541e-03       2.554358317208e+04 
       7.576917881437e-03       2.575941584899e+04 
       7.699516766966e-03       2.597054151616e+04 
       7.822190818144e-03       2.617702120677e+04 
       7.944937253195e-03       2.637889455696e+04 
       8.067753466432e-03       2.657622383340e+04 
       8.190637016235e-03       2.676905588132e+04 
       8.313585614016e-03       2.695743318084e+04 
       8.436597114079e-03       2.714140532346e+04 
       8.559669504301e-03       2.732102114561e+04 
       8.682800897556e-03       2.749632791493e+04 
       8.805989523813e-03       2.766738272272e+04 
       8.929233722859e-03       2.783423063805e+04 
       9.052531937575e-03       2.799690694895e+04 
       9.175882707736e-03       2.815548218523e+04 
       9.299284664283e-03       2.830999424367e+04 
       9.422736524020e-03       2.846048872395e+04 
       9.546237084713e-03       2.860702087624e+04 
       9.669785220550e-03       2.874962462516e+04 
       9.793379877934e-03       2.888834820417e+04 
       9.917020071586e-03       2.902323825697e+04 
       1.004070488092e-02       2.915433720767e+04 
       1.016443344671e-02       2.928168597233e+04 
       1.028820496794e-02       2.940533207300e+04 
       1.041201869892e-02       2.952531891207e+04 
       1.053587394662e-02       2.964170238956e+04 
       1.065977006814e-02       2.975451635276e+04 
       1.078370646837e-02       2.986380423630e+04 
       1.090768259788e-02       2.996961272044e+04 
       1.103169795086e-02       3.007197723203e+04 
       1.115575206324e-02       3.017094648622e+04 
       1.127984451099e-02       3.026654709956e+04 
       1.140397490846e-02       3.035882917175e+04 
       1.152814290686e-02       3.044782690128e+04 
       1.165234819288e-02       3.053358775999e+04 
       1.177659048739e-02       3.061614689308e+04 
       1.190086954417e-02       3.069554670530e+04 
       1.202518514882e-02       3.077182106834e+04 
       1.214953711769e-02       3.084501537410e+04 
       1.227392529690e-02       3.091515775385e+04 
       1.239834956144e-02       3.098229471833e+04 
       1.252280981431e-02       3.104645812812e+04 
       1.264730598575e-02       3.110759959196e+04 
       1.277183803251e-02       3.116592747509e+04 
       1.289640593717e-02       3.122138750926e+04 
       1.302100970753e-02       3.127393567735e+04 
       1.314564937606e-02       3.132376507230e+04 
       1.327032499934e-02       3.137085014345e+04 
       1.339503665758e-02       3.141521294867e+04 
       1.351978445419e-02       3.145691164219e+04 
       1.364456851541e-02       3.149599012545e+04 
       1.376938898987e-02       3.153231853973e+04 
       1.389424604833e-02       3.156601751069e+04 
       1.401913988334e-02       3.159730045994e+04 
       1.414407070898e-02       3.162612694512e+04 
       1.426903876066e-02       3.165245545026e+04 
       1.439404429485e-02       3.167623595737e+04 
       1.451908758897e-02       3.169766871584e+04 
       1.464416894118e-02       3.171674910735e+04 
       1.476928867029e-02       3.173344001622e+04 
       1.489444711564e-02       3.174765081676e+04 
       1.501964463704e-02       3.175972964359e+04 
       1.514488161469e-02       3.176957569694e+04 
       1.527015844916e-02       3.177714699134e+04 
       1.539547556136e-02       3.178249062041e+04 
       1.552083339260e-02       3.178561011146e+04 
       1.564623240455e-02       3.178665846492e+04 
       1.577167307934e-02       3.178562130990e+04 
       1.589715591960e-02       3.178243518507e+04 
       1.602268144854e-02       3.177724231500e+04 
       1.614825021010e-02       3.176999059773e+04 
       1.627386276901e-02       3.176069675112e+04 
       1.639951971098e-02       3.174950391316e+04 
       1.652522164284e-02       3.173653980546e+04 
       1.665096919269e-02       3.172149140253e+04 
       1.677676301015e-02       3.170438748312e+04 
       1.690260376649e-02       3.168576599217e+04 
       1.702849215493e-02       3.166520792124e+04 
       1.715442889084e-02       3.164283308042e+04 
       1.728041471200e-02       3.161869407563e+04 
       1.740645037890e-02       3.159277589419e+04 
       1.753253667499e-02       3.156503417339e+04 
       1.765867440702e-02       3.153582164032e+04 
       1.778486440536e-02       3.150476266428e+04 
       1.791110752433e-02       3.147227700154e+04 
       1.803740464255e-02       3.143803164570e+04 
       1.816375666334e-02       3.140220027618e+04 
       1.829016451508e-02       3.136478383194e+04 
       1.841662915165e-02       3.132581105564e+04 
       1.854315155281e-02       3.128538799364e+04 
       1.866973272471e-02       3.124359898271e+04 
       1.879637370027e-02       3.120020861693e+04 
       1.892307553971e-02       3.115526714124e+04 
       1.904983933102e-02       3.110914009351e+04 
       1.917666619051e-02       3.106144640058e+04 
       1.930355726329e-02       3.101246585863e+04 
       1.943051372387e-02       3.096227086779e+04 
       1.955753677670e-02       3.091061703238e+04 
       1.968462765677e-02       3.085766229926e+04 
       1.981178763021e-02       3.080335577442e+04 
       1.993901799497e-02       3.074789853009e+04 
       2.006632008140e-02       3.069121350736e+04 
       2.019369525299e-02       3.063340408751e+04 
       2.032114490701e-02       3.057425308571e+04 
       2.044867047529e-02       3.051413472360e+04 
       2.057627342491e-02       3.045273361496e+04 
       2.070395525899e-02       3.039028981822e+04 
       2.083171751748e-02       3.032668859387e+04 
       2.095956177799e-02       3.026194266004e+04 
       2.108748965660e-02       3.019623309832e+04 
       2.121550280877e-02       3.012949652446e+04 
       2.134360293018e-02       3.006175535772e+04 
       2.147179175773e-02       2.999311779461e+04 
       2.160007107043e-02       2.992333155353e+04 
       2.172844269041e-02       2.985276968297e+04 
       2.185690848394e-02       2.978117163479e+04 
       2.198547036247e-02       2.970857920024e+04 
       2.211413028370e-02       2.963519032391e+04 
       2.224289025271e-02       2.956092766201e+04 
       2.237175232311e-02       2.948581076151e+04 
       2.250071859821e-02       2.940999231067e+04 
       2.262979123224e-02       2.933322930363e+04 
       2.275897243165e-02       2.925569590255e+04 
       2.288826445635e-02       2.917735520514e+04 
       2.301766962110e-02       2.909825857947e+04 
       2.314719029689e-02       2.901836048764e+04 
       2.327682891234e-02       2.893780031369e+04 
       2.340658795522e-02       2.885658096843e+04 
       2.353646997393e-02       2.877468658817e+04 
       2.366647757910e-02       2.869209432018e+04 
       2.379661344521e-02       2.860885974189e+04 
       2.392688031224e-02       2.852495058986e+04 
       2.405728098747e-02       2.844035816709e+04 
       2.418781834717e-02       2.835524109895e+04 
       2.431849533854e-02       2.826952106965e+04 
       2.444931498157e-02       2.818332159618e+04 
       2.458028037101e-02       2.809643182188e+04 
       2.471139467843e-02       2.800917421729e+04 
       2.484266115434e-02       2.792128792043e+04 
       2.497408313032e-02       2.783288344314e+04 
       2.510566402132e-02       2.774392366819e+04 
       2.523740732798e-02       2.765456136664e+04 
       2.536931663903e-02       2.756472590447e+04 
       2.550139563382e-02       2.747445683779e+04 
       2.563364808484e-02       2.738384942043e+04 
       2.576607786046e-02       2.729261402181e+04 
       2.589868892768e-02       2.720128416068e+04 
       2.603148535496e-02       2.710919220297e+04 
       2.616447131525e-02       2.701699962991e+04 
       2.629765108904e-02       2.692433100390e+04 
       2.643102906753e-02       2.683125675178e+04 
       2.656460975597e-02       2.673790246072e+04 
       2.669839777708e-02       2.664421579425e+04 
       2.683239787459e-02       2.655023337287e+04 
       2.696661491696e-02       2.645602558686e+04 
       2.710105390117e-02       2.636138616523e+04 
       2.723571995674e-02       2.626664662405e+04 
       2.737061834981e-02       2.617153291583e+04 
       2.750575448744e-02       2.607615797217e+04 
       2.764113392209e-02       2.598051419684e+04 
       2.777676235620e-02       2.588467221022e+04 
       2.791264564702e-02       2.578857995378e+04 
       2.804878981161e-02       2.569246335585e+04 
       2.818520103204e-02       2.559601568108e+04 
       2.832188566076e-02       2.549939340351e+04 
       2.845885022631e-02       2.540258180595e+04 
       2.859610143908e-02       2.530555845438e+04 
       2.873364619748e-02       2.520843130161e+04 
       2.887149159429e-02       2.511114913660e+04 
       2.900964492322e-02       2.501382333712e+04 
       2.914811368590e-02       2.491620404010e+04 
       2.928690559902e-02       2.481867769894e+04 
       2.942602860186e-02       2.472089890267e+04 
       2.956549086412e-02       2.462303062992e+04 
       2.970530079409e-02       2.452505092379e+04 
       2.984546704721e-02       2.442699567826e+04 
       2.998599853497e-02       2.432894599961e+04 
       3.012690443426e-02       2.423074085180e+04 
       3.026819419710e-02       2.413262109084e+04 
       3.040987756082e-02       2.403431908107e+04 
       3.055196455877e-02       2.393600422126e+04 
       3.069446553144e-02       2.383762757504e+04 
       3.083739113820e-02       2.373924223828e+04 
       3.098075236950e-02       2.364082802791e+04 
       3.112456055973e-02       2.354242564917e+04 
       3.126882740071e-02       2.344401973995e+04 
       3.141356495575e-02       2.334559528804e+04 
       3.155878567452e-02       2.324725606451e+04 
       3.170450240861e-02       2.314883017163e+04 
       3.185072842783e-02       2.305040138875e+04 
       3.199747743745e-02       2.295202927074e+04 
       3.214476359623e-02       2.285366998152e+04 
       3.229260153542e-02       2.275532293004e+04 
       3.244100637881e-02       2.265714647488e+04 
       3.258999376375e-02       2.255897497578e+04 
       3.273957986336e-02       2.246065779375e+04 
       3.288978140996e-02       2.236253466431e+04 
       3.304061571975e-02       2.226449454689e+04 
       3.319210071885e-02       2.216646684971e+04 
       3.334425497084e-02       2.206846089480e+04 
       3.349709770584e-02       2.197066385992e+04 
       3.365064885125e-02       2.187283462158e+04 
       3.380492906431e-02       2.177494678121e+04 
       3.395995976648e-02       2.167730361284e+04 
       3.411576317999e-02       2.157968552059e+04 
       3.427236236650e-02       2.148214917212e+04 
       3.442978126809e-02       2.138468304043e+04 
       3.458804475084e-02       2.128730117583e+04 
       3.474717865108e-02       2.118995930293e+04 
       3.490720982455e-02       2.109274417542e+04 
       3.506816619873e-02       2.099566509484e+04 
       3.523007682849e-02       2.089861860992e+04 
       3.539297195542e-02       2.080160355962e+04 
       3.555688307112e-02       2.070479679866e+04 
       3.572184298463e-02       2.060809624911e+04 
       3.588788589457e-02       2.051130681198e+04 
       3.605504746615e-02       2.041475228033e+04 
       3.622336491361e-02       2.031830468219e+04 
       3.639287708845e-02       2.022174483138e+04 
       3.656362457404e-02       2.012544584337e+04 
       3.673564978707e-02       2.002922365206e+04 
       3.690899708648e-02       1.993304994705e+04 
       3.708371289055e-02       1.983687615656e+04 
       3.725984580290e-02       1.974088009364e+04 
       3.743744674815e-02       1.964496042601e+04 
       3.761656911821e-02       1.954915281697e+04 
       3.779726893013e-02       1.945321069755e+04 
       3.797960499676e-02       1.935752902904e+04 
       3.816363911128e-02       1.926184030549e+04 
       3.834943624708e-02       1.916621290167e+04 
       3.853706477458e-02       1.907062567253e+04 
       3.872659669653e-02       1.897508061430e+04 
       3.891810790398e-02       1.887950912093e+04 
       3.911167845479e-02       1.878409019650e+04 
       3.930739287740e-02       1.868857488244e+04 
       3.950534050234e-02       1.859320982693e+04 
       3.970561582476e-02       1.849779404167e+04 
       3.990831890138e-02       1.840236902203e+04 
       4.011355578580e-02       1.830692691816e+04 
       4.032143900672e-02       1.821146740087e+04 
       4.053208809411e-02       1.811596076661e+04 
       4.074563015923e-02       1.802047180093e+04 
       4.096220053497e-02       1.792490786256e+04 
       4.118194348439e-02       1.782927370829e+04 
       4.140501298594e-02       1.773355043452e+04 
       4.163157360554e-02       1.763768851687e+04 
       4.186180146709e-02       1.754181950291e+04 
       4.209588533489e-02       1.744587297307e+04 
       4.233402782341e-02       1.734956622854e+04 
       4.257644675264e-02       1.725326156903e+04 
       4.282337667010e-02       1.715673234037e+04 
       4.307507056429e-02       1.706000194319e+04 
       4.333180179852e-02       1.696298890132e+04 
       4.359386629955e-02       1.686580641103e+04 
       4.386158504121e-02       1.676833753661e+04 
       4.413530687126e-02       1.667053004821e+04 
       4.441541173831e-02       1.657236336636e+04 
       4.470231438732e-02       1.647388277239e+04 
       4.499646860526e-02       1.637494473897e+04 
       4.529837211566e-02       1.627556849725e+04 
       4.560857224110e-02       1.617570100864e+04 
       4.592767247825e-02       1.607519740685e+04 
       4.625634016185e-02       1.597420587857e+04 
       4.659531543350e-02       1.587253948369e+04 
       4.694542178077e-02       1.577010063159e+04 
       4.730757847439e-02       1.566688167857e+04 
       4.768281531055e-02       1.556283125101e+04 
       4.807229016462e-02       1.545768930069e+04 
       4.847730999025e-02       1.535152478218e+04 
       4.889935605909e-02       1.524418077869e+04 
       4.934011444291e-02       1.513546309893e+04 
       4.980151300247e-02       1.502526359794e+04 
       5.028576648100e-02       1.491337481904e+04 
       5.079543172049e-02       1.479954791058e+04 
       5.133347554157e-02       1.468357290566e+04 
       5.190335846157e-02       1.456517103886e+04 
       5.250913816182e-02       1.444386248364e+04 
       5.315559739997e-02       1.431918875190e+04 
       5.384840174606e-02       1.419056949981e+04 
       5.459429275101e-02       1.405724749836e+04 
       5.540132118813e-02       1.391826621551e+04 
       5.627912134401e-02       1.377236680833e+04 
       5.723921812462e-02       1.361779380673e+04 
       5.829533888791e-02       1.345235724593e+04 
