# dimensionless total lensed [l(l+1)/2pi] C_l's
# for l=2 to 2500, i.e. number of multipoles equal to 2499
#
# -> if you prefer output in CAMB/HealPix/LensPix units/order, set 'format' to 'camb' in input file
# -> if you don't want to see such a header, set 'headers' to 'no' in input file
# -> for CMB lensing (phi), these are C_l^phi-phi for the lensing potential.
#    Remember the conversion factors:
#    C_l^dd (deflection) = l(l+1) C_l^phi-phi
#    C_l^gg (shear/convergence) = 1/4 (l(l+1))^2 C_l^phi-phi
#
# 1:l     2:TT                     3:EE                     4:TE                     5:BB                     6:phiphi                 7:TPhi                   8:Ephi               
    2       1.742769010138e-10       7.643136558943e-15       5.080513074332e-13       2.854545713346e-19       9.460015893252e-09       5.821227115190e-10      -2.716983661631e-12 
    3       1.629253196255e-10       1.193595581758e-14       6.231552401194e-13       5.711297249071e-19       5.865077679802e-09       4.126001096816e-10      -2.299462119811e-12 
    4       1.523587137376e-10       1.276082624809e-14       6.277232564707e-13       9.523659468687e-19       4.085733580248e-09       3.123134152692e-10      -1.743058081364e-12 
    5       1.442530684229e-10       1.069437800903e-14       5.719105723051e-13       1.429437824137e-18       3.050338024510e-09       2.467122344550e-10      -1.206813235443e-12 
    6       1.384005079635e-10       7.408057523150e-15       4.891818166985e-13       2.002672422308e-18       2.382365826213e-09       2.007012905051e-10      -7.438592406623e-13 
    7       1.343224375780e-10       4.424439771892e-15       4.015907546680e-13       2.672439438277e-18       1.920581142047e-09       1.668480117873e-10      -3.777294392756e-13 
    8       1.316683996260e-10       2.477439797765e-15       3.216597566669e-13       3.439140265457e-18       1.585446952471e-09       1.411061525936e-10      -1.142214952988e-13 
    9       1.300577373788e-10       1.548661672808e-15       2.560805795775e-13       4.303196392508e-18       1.333925095252e-09       1.210622817593e-10       5.270878895033e-14 
   10       1.292663127257e-10       1.237933727821e-15       2.076421757627e-13       5.265037579958e-18       1.139946061083e-09       1.051394661317e-10       1.372813037675e-13 
   11       1.290889185441e-10       1.138898551984e-15       1.762573138853e-13       6.325090264682e-18       9.632006908469e-10       9.258071571883e-11       1.580814818676e-13 
   12       1.293751828261e-10       1.033238030616e-15       1.598824710210e-13       7.483766629629e-18       8.414416717914e-10       8.182872413059e-11       1.367576219768e-13 
   13       1.300236459816e-10       8.908273675543e-16       1.553262564067e-13       8.741454746025e-18       7.414812921564e-10       7.286726902749e-11       9.199859578361e-14 
   14       1.309965871235e-10       7.688340721920e-16       1.589644581181e-13       1.009851014875e-17       6.583239883226e-10       6.547439263543e-11       4.020797602712e-14 
   15       1.321933863999e-10       7.147833346390e-16       1.673632343212e-13       1.155524914459e-17       5.883407381536e-10       5.904415649358e-11      -7.131558859015e-15 
   16       1.335555288128e-10       7.282861659358e-16       1.777527799819e-13       1.311194408016e-17       5.288397863861e-10       5.351847521156e-11      -4.244908947710e-14 
   17       1.350918309641e-10       7.765995131139e-16       1.882302854846e-13       1.476882071419e-17       4.778010818991e-10       4.876218828636e-11      -6.265796325207e-14 
   18       1.367732021881e-10       8.268064174924e-16       1.976525408825e-13       1.652605672952e-17       4.335074255871e-10       4.460248960939e-11      -6.835254972123e-14 
   19       1.385927434973e-10       8.767482517819e-16       2.058254036545e-13       1.838378850706e-17       3.952531070461e-10       4.095945031130e-11      -6.227319876715e-14 
   20       1.404893992094e-10       9.361718248427e-16       2.129030820022e-13       2.034210361824e-17       3.615653176091e-10       3.768763846843e-11      -4.905015165933e-14 
   21       1.424691331200e-10       1.021647494599e-15       2.193368506033e-13       2.240106131722e-17       3.319141015227e-10       3.476621490643e-11      -3.275131485236e-14 
   22       1.445231480041e-10       1.150798797688e-15       2.257437232699e-13       2.456068367829e-17       3.055884956055e-10       3.216868585864e-11      -1.769230108990e-14 
   23       1.466522801395e-10       1.323054658625e-15       2.325891303203e-13       2.682098025959e-17       2.822259795483e-10       2.986555392561e-11      -6.268537618942e-15 
   24       1.488359603019e-10       1.530520844191e-15       2.402435133897e-13       2.918193918219e-17       2.612861746135e-10       2.779679517677e-11      -6.451861203883e-17 
   25       1.510751148298e-10       1.768539406515e-15       2.486899713798e-13       3.164355618321e-17       2.425221422295e-10       2.593195377554e-11       9.834936882858e-16 
   26       1.533605087254e-10       2.033264533972e-15       2.576907256060e-13       3.420582376480e-17       2.255936087747e-10       2.423376606626e-11      -2.159151600242e-15 
   27       1.556949435724e-10       2.325160557594e-15       2.668201539369e-13       3.686875674163e-17       2.102975160217e-10       2.269361004356e-11      -7.928981500336e-15 
   28       1.580734975662e-10       2.645461292277e-15       2.755307686874e-13       3.963238518383e-17       1.963703384528e-10       2.129966986283e-11      -1.440478400443e-14 
   29       1.605028806475e-10       2.992877715011e-15       2.833772775113e-13       4.249678451994e-17       1.837406671065e-10       2.004085006474e-11      -2.037630409184e-14 
   30       1.629786193078e-10       3.364703244730e-15       2.898710773925e-13       4.546205773506e-17       1.722723931564e-10       1.889168089571e-11      -2.465889182562e-14 
   31       1.654846328731e-10       3.758559484428e-15       2.945273434612e-13       4.852833507232e-17       1.617310781592e-10       1.781753466391e-11      -2.614573231507e-14 
   32       1.680280787174e-10       4.177005559115e-15       2.972523979594e-13       5.169579542770e-17       1.520622177965e-10       1.681749179156e-11      -2.501394315219e-14 
   33       1.706146010620e-10       4.624732899511e-15       2.981048091112e-13       5.496465924837e-17       1.431975368460e-10       1.589573075955e-11      -2.199187238605e-14 
   34       1.732408983934e-10       5.106645330978e-15       2.971951149032e-13       5.833518302069e-17       1.350130353228e-10       1.505033957587e-11      -1.797553181035e-14 
   35       1.759054086542e-10       5.625057199286e-15       2.946687930770e-13       6.180764588981e-17       1.274665820592e-10       1.427558176531e-11      -1.370505129042e-14 
   36       1.785992353209e-10       6.181543713639e-15       2.907245264718e-13       6.538236431408e-17       1.204972552111e-10       1.355922632888e-11      -9.998635428454e-15 
   37       1.813090255574e-10       6.777489595534e-15       2.855647371635e-13       6.905967960691e-17       1.140139637228e-10       1.288610963263e-11      -7.642060219841e-15 
   38       1.840405149355e-10       7.413450620237e-15       2.791963845985e-13       7.283989145563e-17       1.079998795579e-10       1.225475612599e-11      -6.677470184027e-15 
   39       1.868014307537e-10       8.089558336843e-15       2.715658253051e-13       7.672330634826e-17       1.024359445984e-10       1.166554684241e-11      -6.879644002774e-15 
   40       1.895944454625e-10       8.805666823407e-15       2.626110633838e-13       8.071025758500e-17       9.726911809910e-11       1.111592377520e-11      -7.938614148512e-15 
   41       1.924186022557e-10       9.561569042304e-15       2.522452822108e-13       8.480107428931e-17       9.243084017585e-11       1.060160056502e-11      -9.485675779242e-15 
   42       1.952755483561e-10       1.035777594226e-14       2.403030576048e-13       8.899597217813e-17       8.790677617450e-11       1.012131851456e-11      -1.119626994430e-14 
   43       1.981643517782e-10       1.119495924213e-14       2.265751889197e-13       9.329513012571e-17       8.368478763551e-11       9.673183743311e-12      -1.271031831724e-14 
   44       2.010792335455e-10       1.207373547213e-14       2.108208996540e-13       9.769871928097e-17       7.973400070237e-11       9.253154278377e-12      -1.359917558660e-14 
   45       2.040130240900e-10       1.299465659957e-14       1.928251785053e-13       1.022068736939e-16       7.601580698454e-11       8.856425857332e-12      -1.349093824612e-14 
   46       2.069698110917e-10       1.395818486904e-14       1.725957683487e-13       1.068195930142e-16       7.252430074261e-11       8.482480624879e-12      -1.250013912939e-14 
   47       2.099553174947e-10       1.496470588918e-14       1.502218039882e-13       1.115368097710e-16       6.925539517297e-11       8.131261049461e-12      -1.091994949471e-14 
   48       2.129731155975e-10       1.601453169649e-14       1.258211188943e-13       1.163584135218e-16       6.619462918749e-11       7.801669582134e-12      -9.107649827140e-15 
   49       2.160244076320e-10       1.710789769404e-14       9.954173854293e-14       1.212842486443e-16       6.331639616234e-11       7.491489602370e-12      -7.488209300982e-15 
   50       2.191088113771e-10       1.824499508127e-14       7.152337477560e-14       1.263141114247e-16       6.059164722414e-11       7.198077368032e-12      -6.452956812210e-15 
   51       2.222274774522e-10       1.942608562366e-14       4.176612252279e-14       1.314477455134e-16       5.801525546264e-11       6.920842695016e-12      -6.014864453008e-15 
   52       2.253804388956e-10       2.065141274424e-14       1.022870361962e-14       1.366848414182e-16       5.558474626928e-11       6.659304980034e-12      -6.065881953475e-15 
   53       2.285655120427e-10       2.192116739706e-14      -2.313502898191e-14       1.420250349128e-16       5.329210837346e-11       6.412339291014e-12      -6.472341875912e-15 
   54       2.317781244004e-10       2.323548667595e-14      -5.837648017800e-14       1.474679047943e-16       5.112342139305e-11       6.178133595453e-12      -7.073602210042e-15 
   55       2.350134102990e-10       2.459441418806e-14      -9.554584653004e-14       1.530130186919e-16       4.906309332441e-11       5.954722895015e-12      -7.712756191554e-15 
   56       2.382735018138e-10       2.599777283357e-14      -1.346699455603e-13       1.586600889501e-16       4.710865898424e-11       5.741844999884e-12      -8.340805214076e-15 
   57       2.415617475738e-10       2.744525798498e-14      -1.757695600801e-13       1.644088515437e-16       4.525900544400e-11       5.539470850710e-12      -8.935987103851e-15 
   58       2.448805217268e-10       2.893647013534e-14      -2.188659300179e-13       1.702590210610e-16       4.350989553707e-11       5.347248150557e-12      -9.473870557044e-15 
   59       2.482311401690e-10       3.047091201735e-14      -2.639808743002e-13       1.762102903337e-16       4.185377501732e-11       5.164481070133e-12      -9.927247107297e-15 
   60       2.516137767747e-10       3.204798572252e-14      -3.111369127332e-13       1.822623300680e-16       4.027957971779e-11       4.990109953007e-12      -1.026602309329e-14 
   61       2.550281751200e-10       3.366706950703e-14      -3.603528649857e-13       1.884148562040e-16       3.877580280452e-11       4.823025642325e-12      -1.046694377832e-14 
   62       2.584761598487e-10       3.532777487223e-14      -4.116292174401e-13       1.946678504979e-16       3.734093732786e-11       4.663140820090e-12      -1.054556069910e-14 
   63       2.619595429227e-10       3.702974233909e-14      -4.649596731066e-13       2.010213890216e-16       3.597504608067e-11       4.510524222431e-12      -1.053128068124e-14 
   64       2.654793205004e-10       3.877256650800e-14      -5.203353634873e-13       2.074755805476e-16       3.467662070680e-11       4.365077752147e-12      -1.045836675439e-14 
   65       2.690356144068e-10       4.055579570628e-14      -5.777448269495e-13       2.140305683283e-16       3.344249229999e-11       4.226526801217e-12      -1.036614208659e-14 
   66       2.726276136032e-10       4.237893163571e-14      -6.371739870987e-13       2.206865318763e-16       3.226774200294e-11       4.094410573310e-12      -1.029919391858e-14 
   67       2.762535156583e-10       4.424142902014e-14      -6.986061311520e-13       2.274436887431e-16       3.114561160618e-11       3.968072406293e-12      -1.030757749809e-14 
   68       2.799114485499e-10       4.614259572215e-14      -7.620190494544e-13       2.343022875895e-16       3.006930528734e-11       3.846842338956e-12      -1.043392931831e-14 
   69       2.836025837996e-10       4.808127037930e-14      -8.273758293136e-13       2.412625817853e-16       2.903801860476e-11       3.730649400099e-12      -1.067131880105e-14 
   70       2.873285518941e-10       5.005607851523e-14      -8.946321483315e-13       2.483248536325e-16       2.805197614581e-11       3.619516570304e-12      -1.099718337177e-14 
   71       2.910904849086e-10       5.206552344496e-14      -9.637388556686e-13       2.554894241309e-16       2.711060817754e-11       3.513374839615e-12      -1.138553498843e-14 
   72       2.948889830496e-10       5.410798337693e-14      -1.034641877812e-12       2.627566545352e-16       2.621250961249e-11       3.412058446776e-12      -1.180682927533e-14 
   73       2.987240811970e-10       5.618170851493e-14      -1.107282124344e-12       2.701269479114e-16       2.535539897439e-11       3.315300118473e-12      -1.222783465709e-14 
   74       3.025952154475e-10       5.828481816011e-14      -1.181595393711e-12       2.776007506945e-16       2.453607736387e-11       3.222726308576e-12      -1.261150149246e-14 
   75       3.065011896566e-10       6.041529781304e-14      -1.257512278988e-12       2.851785542446e-16       2.375038742421e-11       3.133852437378e-12      -1.291683120830e-14 
   76       3.104408068682e-10       6.257116418503e-14      -1.334968216934e-12       2.928608148788e-16       2.299424338413e-11       3.048203624878e-12      -1.310822443623e-14 
   77       3.144149704928e-10       6.475100137785e-14      -1.413935959022e-12       3.006476936887e-16       2.226702874455e-11       2.965712831930e-12      -1.318578273442e-14 
   78       3.184249072843e-10       6.695351766818e-14      -1.494398877968e-12       3.085392718854e-16       2.156874650395e-11       2.886387010031e-12      -1.316032044592e-14 
   79       3.224715169421e-10       6.917738680845e-14      -1.576341461668e-12       3.165356280026e-16       2.089898428478e-11       2.810185896160e-12      -1.304443838056e-14 
   80       3.265553522880e-10       7.142124857200e-14      -1.659749426964e-12       3.246368377823e-16       2.025689526239e-11       2.737019825374e-12      -1.285258732342e-14 
   81       3.306765994428e-10       7.368370929817e-14      -1.744609833408e-12       3.328429740593e-16       1.964117909413e-11       2.666747543409e-12      -1.260113154344e-14 
   82       3.348350580028e-10       7.596334243741e-14      -1.830911197029e-12       3.411541066469e-16       1.905006284832e-11       2.599174019277e-12      -1.230841230189e-14 
   83       3.390301212169e-10       7.825868909639e-14      -1.918643604094e-12       3.495703022215e-16       1.848128193338e-11       2.534048257865e-12      -1.199481136093e-14 
   84       3.432611166311e-10       8.056819279932e-14      -2.007787806596e-12       3.580916382197e-16       1.793262922835e-11       2.471124042191e-12      -1.167911182123e-14 
   85       3.475284363314e-10       8.288999015135e-14      -2.098280182477e-12       3.667182474262e-16       1.740374884572e-11       2.410358521580e-12      -1.136674834724e-14 
   86       3.518325585976e-10       8.522208630968e-14      -2.190042148128e-12       3.754502806011e-16       1.689460615342e-11       2.351742687779e-12      -1.105971646129e-14 
   87       3.561736905317e-10       8.756241712958e-14      -2.282990589824e-12       3.842878932447e-16       1.640493663165e-11       2.295240259303e-12      -1.076010328714e-14 
   88       3.605517542938e-10       8.990884860390e-14      -2.377037792309e-12       3.932312457181e-16       1.593423635152e-11       2.240786551679e-12      -1.047008882869e-14 
   89       3.649663733361e-10       9.225917630259e-14      -2.472091367382e-12       4.022805033639e-16       1.548175245366e-11       2.188287347681e-12      -1.019194724879e-14 
   90       3.694168586384e-10       9.461112481216e-14      -2.568054182476e-12       4.114358366266e-16       1.504647362685e-11       2.137617767572e-12      -9.928048147985e-15 
   91       3.739021949432e-10       9.696234717522e-14      -2.664824289243e-12       4.206974211736e-16       1.462712058674e-11       2.088621139342e-12      -9.680857843275e-15 
   92       3.784210269902e-10       9.931042432998e-14      -2.762294852139e-12       4.300654380153e-16       1.422213655439e-11       2.041107868948e-12      -9.452940646904e-15 
   93       3.829720676054e-10       1.016529575614e-13      -2.860362815469e-12       4.395401691198e-16       1.383005581822e-11       1.994901956157e-12      -9.246363725652e-15 
   94       3.875554220745e-10       1.039878629779e-13      -2.958956550757e-12       4.491223004426e-16       1.345069350895e-11       1.949990998680e-12      -9.060806511428e-15 
   95       3.921714384319e-10       1.063131204938e-13      -3.058012254852e-12       4.588126649078e-16       1.308411799548e-11       1.906396764832e-12      -8.895167987138e-15 
   96       3.968202954874e-10       1.086266854702e-13      -3.157465629843e-12       4.686121523870e-16       1.273028447229e-11       1.864129088763e-12      -8.748130954859e-15 
   97       4.015019948518e-10       1.109264894321e-13      -3.257251931598e-12       4.785217111315e-16       1.238903062801e-11       1.823185394723e-12      -8.618155127650e-15 
   98       4.062163529626e-10       1.132104407836e-13      -3.357306018299e-12       4.885423492036e-16       1.206007231389e-11       1.783550221323e-12      -8.503470221374e-15 
   99       4.109629931097e-10       1.154764255250e-13      -3.457562398975e-12       4.986751359074e-16       1.174299921237e-11       1.745194745798e-12      -8.402069046505e-15 
  100       4.157413374612e-10       1.177223079687e-13      -3.557955282035e-12       5.089212032213e-16       1.143727050560e-11       1.708076308272e-12      -8.311700599948e-15 
  101       4.205505990888e-10       1.199459314553e-13      -3.658418623808e-12       5.192817472285e-16       1.114221054396e-11       1.672137936019e-12      -8.229863156855e-15 
  102       4.253897739937e-10       1.221451190702e-13      -3.758886177073e-12       5.297580295492e-16       1.085700451458e-11       1.637307867724e-12      -8.153797362435e-15 
  103       4.302576331325e-10       1.243176743598e-13      -3.859291539598e-12       5.403513787715e-16       1.058069410988e-11       1.603499077750e-12      -8.080479323774e-15 
  104       4.351529754684e-10       1.264614153813e-13      -3.959565804676e-12       5.510630746535e-16       1.031239431042e-11       1.570629780083e-12      -8.007212099560e-15 
  105       4.400754432334e-10       1.285742805483e-13      -4.059630046755e-12       5.618939798315e-16       1.005198641411e-11       1.538689119285e-12      -7.933506046860e-15 
  106       4.450248024430e-10       1.306542384855e-13      -4.159401906487e-12       5.728448607974e-16       9.799510985848e-12       1.507679507835e-12      -7.859440785433e-15 
  107       4.500006866595e-10       1.326992570413e-13      -4.258797919989e-12       5.839165008281e-16       9.554953224461e-12       1.477596196633e-12      -7.785089153947e-15 
