# dimensionless total [l(l+1)/2pi] C_l's
# for l=2 to 3000, i.e. number of multipoles equal to 2999
#
# -> if you prefer output in CAMB/HealPix/LensPix units/order, set 'format' to 'camb' in input file
# -> if you don't want to see such a header, set 'headers' to 'no' in input file
# -> for CMB lensing (phi), these are C_l^phi-phi for the lensing potential.
#    Remember the conversion factors:
#    C_l^dd (deflection) = l(l+1) C_l^phi-phi
#    C_l^gg (shear/convergence) = 1/4 (l(l+1))^2 C_l^phi-phi
#
# 1:l     2:TT                     3:EE                     4:TE                     5:BB                     6:phiphi                 7:TPhi                   8:Ephi               
    2       1.714772134746e-10       8.406147826219e-15       5.385998852967e-13       0.000000000000e+00       9.589614697222e-09       5.673127906483e-10      -2.846346043082e-12 
    3       1.608068064017e-10       1.417306760045e-14       6.810949497213e-13       0.000000000000e+00       5.969421552945e-09       4.034439811410e-10      -2.498143016364e-12 
    4       1.505654703367e-10       1.644558566495e-14       7.050276766011e-13       0.000000000000e+00       4.159652077457e-09       3.064088315671e-10      -1.986383439156e-12 
    5       1.425356685964e-10       1.510038355212e-14       6.598501854266e-13       0.000000000000e+00       3.105930686893e-09       2.427287482897e-10      -1.467638097489e-12 
    6       1.366141758795e-10       1.155742985814e-14       5.798157835827e-13       0.000000000000e+00       2.424629145497e-09       1.979261505349e-10      -9.960493476743e-13 
    7       1.324196002400e-10       7.593982617212e-15       4.883136114664e-13       0.000000000000e+00       1.954491285681e-09       1.649415604990e-10      -5.992399097831e-13 
    8       1.296326839590e-10       4.455787756794e-15       3.992292186587e-13       0.000000000000e+00       1.615007053287e-09       1.397974682270e-10      -2.891945480739e-13 
    9       1.278639023185e-10       2.576186126573e-15       3.208417678019e-13       0.000000000000e+00       1.360522292107e-09       1.200759485120e-10      -6.726928515985e-14 
   10       1.269170032162e-10       1.752577338320e-15       2.577711856889e-13       0.000000000000e+00       1.163519459171e-09       1.043225143626e-10       7.318463505971e-14 
   11       1.266371825926e-10       1.515324512213e-15       2.117399220990e-13       0.000000000000e+00       9.804478615490e-10       9.189696959716e-11       1.437609830420e-13 
   12       1.268138087579e-10       1.448458517921e-15       1.824081425615e-13       0.000000000000e+00       8.567736717511e-10       8.120777351286e-11       1.612868580427e-13 
   13       1.273985822534e-10       1.340633307647e-15       1.678652766786e-13       0.000000000000e+00       7.552229113764e-10       7.235452346118e-11       1.418361356325e-13 
   14       1.282520248857e-10       1.171455942004e-15       1.649903900946e-13       0.000000000000e+00       6.707297531200e-10       6.500176838959e-11       1.008107052820e-13 
   15       1.293768214606e-10       1.012579030084e-15       1.701783206510e-13       0.000000000000e+00       5.996066440252e-10       5.857450727307e-11       5.094902173965e-14 
   16       1.306819894752e-10       9.300324419264e-16       1.800594158331e-13       0.000000000000e+00       5.391260732668e-10       5.315804897967e-11       3.100260861312e-15 
   17       1.321204692601e-10       9.371798649607e-16       1.919206746227e-13       0.000000000000e+00       4.872379098238e-10       4.849326252147e-11      -3.579820531118e-14 
   18       1.337118344218e-10       9.985997073021e-16       2.035440567452e-13       0.000000000000e+00       4.421978003030e-10       4.438406595811e-11      -6.200130305540e-14 
   19       1.354507822891e-10       1.077983063424e-15       2.139225579551e-13       0.000000000000e+00       4.032934105466e-10       4.078777014710e-11      -7.479615548578e-14 
   20       1.372565395629e-10       1.140327921084e-15       2.224089971109e-13       0.000000000000e+00       3.690262576975e-10       3.759447605916e-11      -7.550518294021e-14 
   21       1.391458278113e-10       1.192148068352e-15       2.290788332425e-13       0.000000000000e+00       3.388588457384e-10       3.475067528688e-11      -6.676790030982e-14 
   22       1.411280877850e-10       1.257058595031e-15       2.343787321476e-13       0.000000000000e+00       3.120701684477e-10       3.217876388582e-11      -5.251973991021e-14 
   23       1.431894211310e-10       1.356398506774e-15       2.389116409865e-13       0.000000000000e+00       2.882924392246e-10       2.986309781404e-11      -3.609192706502e-14 
   24       1.452870166119e-10       1.509074016910e-15       2.433944108113e-13       0.000000000000e+00       2.669764645524e-10       2.778181105514e-11      -2.090600768914e-14 
   25       1.474319639257e-10       1.713745012691e-15       2.483180480987e-13       0.000000000000e+00       2.478716259789e-10       2.592596112284e-11      -8.932192734410e-15 
   26       1.496327031046e-10       1.960965378933e-15       2.540573359934e-13       0.000000000000e+00       2.306322961491e-10       2.426743116416e-11      -1.549892186611e-15 
   27       1.518806465265e-10       2.244077060082e-15       2.606205516397e-13       0.000000000000e+00       2.150524670386e-10       2.276305039517e-11       1.066321863407e-15 
   28       1.541524891584e-10       2.557031739156e-15       2.678129965695e-13       0.000000000000e+00       2.008645124631e-10       2.135858269955e-11      -6.028080169540e-16 
   29       1.564572781860e-10       2.899288518375e-15       2.752592918116e-13       0.000000000000e+00       1.879960699024e-10       2.005748359833e-11      -5.507969386946e-15 
   30       1.588016149734e-10       3.271840597963e-15       2.824136443011e-13       0.000000000000e+00       1.763087461387e-10       1.887341327996e-11      -1.206424370016e-14 
   31       1.611803554187e-10       3.674989898950e-15       2.886456741226e-13       0.000000000000e+00       1.655639945093e-10       1.780905787728e-11      -1.846520521410e-14 
   32       1.635973712636e-10       4.106338926154e-15       2.935436388845e-13       0.000000000000e+00       1.557065900560e-10       1.685246706035e-11      -2.378949920130e-14 
   33       1.660495433344e-10       4.561937186262e-15       2.967136866903e-13       0.000000000000e+00       1.466672915232e-10       1.597701308134e-11      -2.728274139690e-14 
   34       1.685264651750e-10       5.038480777287e-15       2.977840015674e-13       0.000000000000e+00       1.383200726011e-10       1.515079494345e-11      -2.828852390212e-14 
   35       1.710337407771e-10       5.539419730478e-15       2.967065393748e-13       0.000000000000e+00       1.306222018542e-10       1.437087664956e-11      -2.702778653780e-14 
   36       1.735759398038e-10       6.071076603420e-15       2.935643148127e-13       0.000000000000e+00       1.235117485123e-10       1.363992242912e-11      -2.410741443250e-14 
   37       1.761518931431e-10       6.639923595226e-15       2.884868135162e-13       0.000000000000e+00       1.168960197834e-10       1.295766507989e-11      -2.024491591171e-14 
   38       1.787628427132e-10       7.248428211763e-15       2.816180595346e-13       0.000000000000e+00       1.107579855256e-10       1.232394901756e-11      -1.597808050441e-14 
   39       1.814056121470e-10       7.897883604874e-15       2.731441814696e-13       0.000000000000e+00       1.050783196563e-10       1.173609655574e-11      -1.187599255248e-14 
   40       1.840694816244e-10       8.589511689672e-15       2.633062653442e-13       0.000000000000e+00       9.980303722069e-11       1.118767797971e-11      -8.626065892358e-15 
   41       1.867418858409e-10       9.324260073989e-15       2.523286092687e-13       0.000000000000e+00       9.486231950836e-11       1.067085026633e-11      -6.852223673970e-15 
   42       1.894295096840e-10       1.010213090428e-14       2.401673759605e-13       0.000000000000e+00       9.024162946743e-11       1.018506869061e-11      -6.480953689503e-15 
   43       1.921428199648e-10       1.092262123937e-14       2.266857349073e-13       0.000000000000e+00       8.592865671837e-11       9.730665149249e-12      -7.180994597897e-15 
   44       1.948899345356e-10       1.178487957183e-14       2.117200912758e-13       0.000000000000e+00       8.189197213594e-11       9.306291091910e-12      -8.528847531386e-15 
   45       1.976759609851e-10       1.268802698456e-14       1.950960962883e-13       0.000000000000e+00       7.809225096442e-11       8.909546622212e-12      -1.007779054658e-14 
   46       2.005014725228e-10       1.363228400870e-14       1.766867095715e-13       0.000000000000e+00       7.452352939127e-11       8.539425237906e-12      -1.160323463013e-14 
   47       2.033630743579e-10       1.461814535781e-14       1.563683743033e-13       0.000000000000e+00       7.118169342626e-11       8.194359481541e-12      -1.292082393619e-14 
   48       2.062534222387e-10       1.564606623941e-14       1.340038931200e-13       0.000000000000e+00       6.805203742533e-11       7.871419425148e-12      -1.381650350794e-14 
   49       2.091609062017e-10       1.671646129714e-14       1.094416211533e-13       0.000000000000e+00       6.510847628617e-11       7.566215664598e-12      -1.404501157295e-14 
   50       2.120741378555e-10       1.782967621094e-14       8.255777609389e-14       0.000000000000e+00       6.232140639201e-11       7.274184399038e-12      -1.341480975260e-14 
   51       2.149975818640e-10       1.898589586387e-14       5.339877975020e-14       0.000000000000e+00       5.968563165137e-11       6.995078947699e-12      -1.207354923205e-14 
   52       2.179396207937e-10       2.018520941968e-14       2.207615861300e-14       0.000000000000e+00       5.719865589791e-11       6.729529724358e-12      -1.029748499525e-14 
   53       2.209080343570e-10       2.142763319726e-14      -1.127200318523e-14       0.000000000000e+00       5.485232488752e-11       6.477737500752e-12      -8.414309522418e-15 
   54       2.239099092103e-10       2.271310832607e-14      -4.647984179598e-14       0.000000000000e+00       5.263244549387e-11       6.239441440245e-12      -6.805712751964e-15 
   55       2.269508661124e-10       2.404153348099e-14      -8.339383594569e-14       0.000000000000e+00       5.052311493141e-11       6.014078025562e-12      -5.815732054012e-15 
   56       2.300327232195e-10       2.541287798052e-14      -1.220076454088e-13       0.000000000000e+00       4.852184022355e-11       5.801377307532e-12      -5.443275685308e-15 
   57       2.331550943063e-10       2.682709267799e-14      -1.623586287471e-13       0.000000000000e+00       4.662750772596e-11       5.600858785774e-12      -5.577699533827e-15 
   58       2.363159062901e-10       2.828407638732e-14      -2.044898140118e-13       0.000000000000e+00       4.483580917416e-11       5.411629497033e-12      -6.085238440352e-15 
   59       2.395112824320e-10       2.978367490527e-14      -2.484502874884e-13       0.000000000000e+00       4.313904438661e-11       5.232359486272e-12      -6.807895641306e-15 
   60       2.427354255387e-10       3.132568003361e-14      -2.942955824423e-13       0.000000000000e+00       4.152592396777e-11       5.061257277754e-12      -7.562332211580e-15 
   61       2.459826794915e-10       3.290977439108e-14      -3.420764222964e-13       0.000000000000e+00       3.998470446459e-11       4.896540664569e-12      -8.179853186869e-15 
   62       2.492545187977e-10       3.453535358575e-14      -3.918011180998e-13       0.000000000000e+00       3.851386251625e-11       4.738028054601e-12      -8.639366501910e-15 
   63       2.525539277977e-10       3.620166221055e-14      -4.434653821907e-13       0.000000000000e+00       3.711347742885e-11       4.585862417841e-12      -8.962433229383e-15 
   64       2.558833140409e-10       3.790784188698e-14      -4.970632478361e-13       0.000000000000e+00       3.578202039590e-11       4.440038849212e-12      -9.174993975708e-15 
   65       2.592444606040e-10       3.965292856718e-14      -5.525870884712e-13       0.000000000000e+00       3.451626293766e-11       4.300395755740e-12      -9.307562290439e-15 
   66       2.626384784088e-10       4.143584983618e-14      -6.100276369398e-13       0.000000000000e+00       3.331118534044e-11       4.166606043721e-12      -9.395418075661e-15 
   67       2.660657585405e-10       4.325542221399e-14      -6.693740047344e-13       0.000000000000e+00       3.215988509587e-11       4.038168305885e-12      -9.478800995383e-15 
   68       2.695264125445e-10       4.511046504768e-14      -7.306127203866e-13       0.000000000000e+00       3.105542026136e-11       3.914566104293e-12      -9.594394120529e-15 
   69       2.730218034974e-10       4.700017501619e-14      -7.937245753683e-13       0.000000000000e+00       2.999697793853e-11       3.795802996599e-12      -9.747338688799e-15 
   70       2.765532409386e-10       4.892382301217e-14      -8.586871707140e-13       0.000000000000e+00       2.898479695015e-11       3.681960586548e-12      -9.933870193431e-15 
   71       2.801214857718e-10       5.088064454525e-14      -9.254758355833e-13       0.000000000000e+00       2.801830218922e-11       3.573035587567e-12      -1.014949759961e-14 
   72       2.837267150626e-10       5.286984002601e-14      -9.940636214146e-13       0.000000000000e+00       2.709606254484e-11       3.468935309060e-12      -1.038897399773e-14 
   73       2.873684868372e-10       5.489057505000e-14      -1.064421296080e-12       0.000000000000e+00       2.621574882790e-11       3.369473142695e-12      -1.064626725668e-14 
   74       2.910457048812e-10       5.694198068169e-14      -1.136517338039e-12       0.000000000000e+00       2.537409169689e-11       3.274364048701e-12      -1.091453067709e-14 
   75       2.947565835377e-10       5.902315373853e-14      -1.210317930494e-12       0.000000000000e+00       2.456683958366e-11       3.183220042149e-12      -1.118607364463e-14 
   76       2.984993958068e-10       6.113299788070e-14      -1.285784272618e-12       0.000000000000e+00       2.378981386642e-11       3.095645857497e-12      -1.145301721213e-14 
   77       3.022749529534e-10       6.326971279803e-14      -1.362863960095e-12       0.000000000000e+00       2.304238953665e-11       3.011556059756e-12      -1.170946373497e-14 
   78       3.060845152147e-10       6.543121195707e-14      -1.441498014858e-12       0.000000000000e+00       2.232457575706e-11       2.930907828235e-12      -1.194967140024e-14 
   79       3.099290297828e-10       6.761527059942e-14      -1.521623368696e-12       0.000000000000e+00       2.163595566501e-11       2.853603488656e-12      -1.216738934283e-14 
   80       3.138091116654e-10       6.981952276135e-14      -1.603172802398e-12       0.000000000000e+00       2.097566679815e-11       2.779488053678e-12      -1.235584234371e-14 
   81       3.177250245465e-10       7.204145829339e-14      -1.686074884885e-12       0.000000000000e+00       2.034238152020e-11       2.708346763427e-12      -1.250771552824e-14 
   82       3.216766616473e-10       7.427841987988e-14      -1.770253912354e-12       0.000000000000e+00       1.973428744660e-11       2.639902626018e-12      -1.261513906444e-14 
   83       3.256635265864e-10       7.652760005862e-14      -1.855629847415e-12       0.000000000000e+00       1.914906787026e-11       2.573813958087e-12      -1.266967286130e-14 
   84       3.296850596082e-10       7.878631234586e-14      -1.942126786210e-12       0.000000000000e+00       1.858446470469e-11       2.509758212095e-12      -1.266454744431e-14 
   85       3.337417203301e-10       8.105286278286e-14      -2.029700105857e-12       0.000000000000e+00       1.804011741778e-11       2.447704812777e-12      -1.260184693344e-14 
   86       3.378340502357e-10       8.332581808061e-14      -2.118313726819e-12       0.000000000000e+00       1.751599448321e-11       2.387683252173e-12      -1.248649433241e-14 
   87       3.419623301277e-10       8.560374596316e-14      -2.207932066317e-12       0.000000000000e+00       1.701182832841e-11       2.329699829960e-12      -1.232412350973e-14 
   88       3.461265667935e-10       8.788521679396e-14      -2.298520120792e-12       0.000000000000e+00       1.652710555041e-11       2.273736644176e-12      -1.212110181590e-14 
   89       3.503264796703e-10       9.016880520230e-14      -2.390043548377e-12       0.000000000000e+00       1.606105713180e-11       2.219750581942e-12      -1.188455270074e-14 
   90       3.545614875102e-10       9.245309170970e-14      -2.482468751362e-12       0.000000000000e+00       1.561264865665e-11       2.167672310193e-12      -1.162237833055e-14 
   91       3.588306950452e-10       9.473666435631e-14      -2.575762958658e-12       0.000000000000e+00       1.518057052645e-11       2.117405266397e-12      -1.134328220535e-14 
   92       3.631328796527e-10       9.701812032733e-14      -2.669894308263e-12       0.000000000000e+00       1.476322817597e-11       2.068824649283e-12      -1.105679177619e-14 
   93       3.674668719574e-10       9.929594390410e-14      -2.764823903848e-12       0.000000000000e+00       1.435912027428e-11       2.021807781699e-12      -1.077161082354e-14 
   94       3.718327920806e-10       1.015681157870e-13      -2.860480438769e-12       0.000000000000e+00       1.396805964580e-11       1.976332615097e-12      -1.049034400534e-14 
   95       3.762309755333e-10       1.038324477483e-13      -2.956781890214e-12       0.000000000000e+00       1.359011874046e-11       1.932392243013e-12      -1.021401700581e-14 
   96       3.806615880250e-10       1.060867010019e-13      -3.053643177696e-12       0.000000000000e+00       1.322525361170e-11       1.889964278109e-12      -9.943675772407e-15 
   97       3.851246175367e-10       1.083285861318e-13      -3.150976135347e-12       0.000000000000e+00       1.287329945813e-11       1.849010273539e-12      -9.680386206050e-15 
   98       3.896198663932e-10       1.105557630209e-13      -3.248689484216e-12       0.000000000000e+00       1.253396616529e-11       1.809475144311e-12      -9.425233851215e-15 
   99       3.941469433358e-10       1.127658407801e-13      -3.346688804562e-12       0.000000000000e+00       1.220683384738e-11       1.771286588656e-12      -9.179323586098e-15 
  100       3.987052555953e-10       1.149563776764e-13      -3.444876508153e-12       0.000000000000e+00       1.189134838899e-11       1.734354509388e-12      -8.943779312754e-15 
  101       4.032940009642e-10       1.171248810620e-13      -3.543151810563e-12       0.000000000000e+00       1.158681698680e-11       1.698570435273e-12      -8.719743647246e-15 
  102       4.079121598698e-10       1.192688073033e-13      -3.641410703465e-12       0.000000000000e+00       1.129240369135e-11       1.663806942394e-12      -8.508377609784e-15 
  103       4.125584874465e-10       1.213855617091e-13      -3.739545926929e-12       0.000000000000e+00       1.100712494875e-11       1.629917075514e-12      -8.310860314874e-15 
  104       4.172317727412e-10       1.234726215913e-13      -3.837453628156e-12       0.000000000000e+00       1.073007249701e-11       1.596768579868e-12      -8.128103270847e-15 
  105       4.219316732795e-10       1.255279245330e-13      -3.935054421762e-12       0.000000000000e+00       1.046112594933e-11       1.564353109254e-12      -7.959849991923e-15 
  106       4.266579789832e-10       1.275495326807e-13      -4.032275136026e-12       0.000000000000e+00       1.020032860702e-11       1.532690760300e-12      -7.805453612984e-15 
  107       4.314103501738e-10       1.295355155632e-13      -4.129042425727e-12       0.000000000000e+00       9.947666764579e-12       1.501796385671e-12      -7.664148014413e-15 
