# Matter power spectrum P(k) at redshift z=0
# for k=1.00946e-05 to 124.492 h/Mpc,
# number of wavenumbers equal to 713
#    1:k (h/Mpc)              2:P (Mpc/h)^3        
       1.009462240743e-05       6.421828569096e+01 
       2.254505961125e-05       1.405340547779e+02 
       3.503639398545e-05       2.148503395641e+02 
       4.760002062644e-05       2.884479006398e+02 
       6.026781993044e-05       3.618755675373e+02 
       7.307242324431e-05       4.354857644223e+02 
       8.604748647405e-05       5.095542156105e+02 
       9.922797506845e-05       5.843256187872e+02 
       1.126504638230e-04       6.600163713135e+02 
       1.263534549787e-04       7.369011915044e+02 
       1.403777181064e-04       8.152320512819e+02 
       1.547666552383e-04       8.952521115574e+02 
       1.695666946080e-04       9.772311631368e+02 
       1.848277161308e-04       1.061435698745e+03 
       2.006035113408e-04       1.148150147649e+03 
       2.169522798142e-04       1.237679547121e+03 
       2.339371630338e-04       1.330364226701e+03 
       2.516268150538e-04       1.426546424453e+03 
       2.700960070185e-04       1.526618735517e+03 
       2.894262593624e-04       1.630975515088e+03 
       3.097064911117e-04       1.740072750841e+03 
       3.310336698328e-04       1.854382012354e+03 
       3.535134381426e-04       1.974425386933e+03 
       3.772606830569e-04       2.100753465795e+03 
       4.024000026768e-04       2.233964403091e+03 
       4.290660109132e-04       2.374690474545e+03 
       4.574034056474e-04       2.523607179630e+03 
       4.875667101125e-04       2.681421487803e+03 
       5.197195834170e-04       2.848869706702e+03 
       5.540335872574e-04       3.026707262377e+03 
       5.906862964197e-04       3.215696796674e+03 
       6.298586561349e-04       3.416590536140e+03 
       6.717315254505e-04       3.630111570557e+03 
       7.164814070611e-04       3.856927942667e+03 
       7.642754516026e-04       4.097627254714e+03 
       8.152659333972e-04       4.352688102253e+03 
       8.695845120546e-04       4.622448898583e+03 
       9.273366989552e-04       4.907086141906e+03 
       9.885970128911e-04       5.206589737612e+03 
       1.053405309852e-03       5.520751318686e+03 
       1.121764693252e-03       5.849159989482e+03 
       1.193641256173e-03       6.191211769767e+03 
       1.268965700769e-03       6.546120341182e+03 
       1.347636662007e-03       6.912913129566e+03 
       1.429525377859e-03       7.290546447295e+03 
       1.514481230526e-03       7.677887058481e+03 
       1.602337648742e-03       8.073736847606e+03 
       1.692917903541e-03       8.476879169855e+03 
       1.786040426791e-03       8.886105554972e+03 
       1.881523404750e-03       9.300244017194e+03 
       1.979188521292e-03       9.718173406615e+03 
       2.078863828915e-03       1.013883860626e+04 
       2.180385801262e-03       1.056126213902e+04 
       2.283600667431e-03       1.098453967492e+04 
       2.388365150148e-03       1.140785507117e+04 
       2.494546733058e-03       1.183046838426e+04 
       2.602023573595e-03       1.225171326185e+04 
       2.710684162595e-03       1.267099633577e+04 
       2.820426814059e-03       1.308779412903e+04 
       2.931159050965e-03       1.350163981852e+04 
       3.042796937197e-03       1.391213915424e+04 
       3.155264392250e-03       1.431892620753e+04 
       3.268492514502e-03       1.472168766716e+04 
       3.382418930307e-03       1.512016822095e+04 
       3.496987179726e-03       1.551412601650e+04 
       3.612146144974e-03       1.590336552044e+04 
       3.727849524222e-03       1.628771595523e+04 
       3.844055351094e-03       1.666703112144e+04 
       3.960725558586e-03       1.704119792326e+04 
       4.077825585161e-03       1.741010618519e+04 
       4.195324020231e-03       1.777368428202e+04 
       4.313192285913e-03       1.813185193761e+04 
       4.431404351909e-03       1.848457377860e+04 
       4.549936480402e-03       1.883179996125e+04 
       4.668766998006e-03       1.917350143520e+04 
       4.787876091995e-03       1.950965121141e+04 
       4.907245628250e-03       1.984028028625e+04 
       5.026858988601e-03       2.016536527729e+04 
       5.146700925436e-03       2.048491730435e+04 
       5.266757431696e-03       2.079894926063e+04 
       5.387015624539e-03       2.110747600106e+04 
       5.507463641157e-03       2.141052614716e+04 
       5.628090545409e-03       2.170812867444e+04 
       5.748886244053e-03       2.200029883033e+04 
       5.869841411523e-03       2.228707999231e+04 
       5.990947422313e-03       2.256851636653e+04 
       6.112196290122e-03       2.284463403654e+04 
       6.233580613033e-03       2.311547918348e+04 
       6.355093524064e-03       2.338109217956e+04 
       6.476728646525e-03       2.364150878348e+04 
       6.598480053652e-03       2.389678768114e+04 
       6.720342232080e-03       2.414698690818e+04 
       6.842310048746e-03       2.439211305614e+04 
       6.964378720865e-03       2.463226232343e+04 
       7.086543788662e-03       2.486745513935e+04 
       7.208801090585e-03       2.509772514906e+04 
       7.331146740743e-03       2.532316785781e+04 
       7.453577108344e-03       2.554386713261e+04 
       7.576088798944e-03       2.575975906835e+04 
       7.698678637324e-03       2.597094307830e+04 
       7.821343651836e-03       2.617748397359e+04 
       7.944081060080e-03       2.637941765010e+04 
       8.066888255784e-03       2.657680707331e+04 
       8.189762796781e-03       2.676969935492e+04 
       8.312702393963e-03       2.695813745585e+04 
       8.435704901149e-03       2.714216699757e+04 
       8.558768305756e-03       2.732184730413e+04 
       8.681890720227e-03       2.749721496225e+04 
       8.805070374121e-03       2.766833078141e+04 
       8.928305606838e-03       2.783523923179e+04 
       9.051594860891e-03       2.799797722847e+04 
       9.174936675710e-03       2.815661356972e+04 
       9.298329681906e-03       2.831118662586e+04 
       9.421772595969e-03       2.846174174313e+04 
       9.545264215367e-03       2.860833476283e+04 
       9.668803414005e-03       2.875099936715e+04 
       9.792389138016e-03       2.888978368745e+04 
       9.916020401862e-03       2.902473436294e+04 
       1.003969628471e-02       2.915589461606e+04 
       1.016341592710e-02       2.928330287412e+04 
       1.028717852779e-02       2.940700911127e+04 
       1.041098334087e-02       2.952705601290e+04 
       1.053482967311e-02       2.964349898333e+04 
       1.065871688139e-02       2.975637194353e+04 
       1.078264437043e-02       2.986571948951e+04 
       1.090661159061e-02       2.997158831836e+04 
       1.103061803593e-02       3.007401369181e+04 
       1.115466324216e-02       3.017303602800e+04 
       1.127874678510e-02       3.026869788458e+04 
       1.140286827892e-02       3.036103809365e+04 
       1.152702737470e-02       3.045009387012e+04 
       1.165122375897e-02       3.053591216331e+04 
       1.177545715243e-02       3.061852855809e+04 
       1.189972730874e-02       3.069798521077e+04 
       1.202403401335e-02       3.077431557911e+04 
       1.214837708248e-02       3.084756377674e+04 
       1.227275636211e-02       3.091776716145e+04 
       1.239717172709e-02       3.098495640282e+04 
       1.252162308031e-02       3.104918299654e+04 
       1.264611035186e-02       3.111036511287e+04 
       1.277063349839e-02       3.116875219961e+04 
       1.289519250234e-02       3.122427351599e+04 
       1.301978737141e-02       3.127686519349e+04 
       1.314441813793e-02       3.132675826619e+04 
       1.326908485837e-02       3.137388947013e+04 
       1.339378761283e-02       3.141830659113e+04 
       1.351852650461e-02       3.146005526430e+04 
       1.364330165981e-02       3.149918761291e+04 
       1.376811322698e-02       3.153556535716e+04 
       1.389296137675e-02       3.156931681858e+04 
       1.401784630156e-02       3.160064688595e+04 
       1.414276821540e-02       3.162952351739e+04 
       1.426772735353e-02       3.165590601806e+04 
       1.439272397235e-02       3.167973553366e+04 
       1.451775834915e-02       3.170121471573e+04 
       1.464283078199e-02       3.172034491224e+04 
       1.476794158957e-02       3.173708543621e+04 
       1.489309111111e-02       3.175134091492e+04 
       1.501827970632e-02       3.176346183447e+04 
       1.514350775529e-02       3.177336741038e+04 
       1.526877565847e-02       3.178097234765e+04 
       1.539408383668e-02       3.178636654622e+04 
       1.551943273109e-02       3.178952640285e+04 
       1.564482280329e-02       3.179061975894e+04 
       1.577025453526e-02       3.178962587889e+04 
       1.589572842955e-02       3.178648570644e+04 
       1.602124500924e-02       3.178133969175e+04 
       1.614680481816e-02       3.177412527412e+04 
       1.627240842093e-02       3.176487508945e+04 
       1.639805640313e-02       3.175372105072e+04 
       1.652374937146e-02       3.174080403459e+04 
       1.664948795394e-02       3.172578939603e+04 
       1.677527280002e-02       3.170872552025e+04 
       1.690110458088e-02       3.169014513271e+04 
       1.702698398961e-02       3.166962485363e+04 
       1.715291174144e-02       3.164729320600e+04 
       1.727888857404e-02       3.162318877941e+04 
       1.740491524776e-02       3.159730770931e+04 
       1.753099254592e-02       3.156960330200e+04 
       1.765712127514e-02       3.154042771612e+04 
       1.778330226564e-02       3.150940537784e+04 
       1.790953637162e-02       3.147695788768e+04 
       1.803582447156e-02       3.144274488261e+04 
       1.816216746862e-02       3.140694848257e+04 
       1.828856629106e-02       3.136956305441e+04 
       1.841502189259e-02       3.133062563064e+04 
       1.854153525284e-02       3.129023689798e+04 
       1.866810737779e-02       3.124847986292e+04 
       1.879473930021e-02       3.120512142315e+04 
       1.892143208017e-02       3.116021004155e+04 
       1.904818680551e-02       3.111411497270e+04 
       1.917500459235e-02       3.106645112491e+04 
       1.930188658565e-02       3.101750068514e+04 
       1.942883395974e-02       3.096733389050e+04 
       1.955584791890e-02       3.091570935919e+04 
       1.968292969794e-02       3.086278596881e+04 
       1.981008056283e-02       3.080850716274e+04 
       1.993730181131e-02       3.075307587156e+04 
       2.006459477357e-02       3.069641722166e+04 
       2.019196081288e-02       3.063863460262e+04 
       2.031940132634e-02       3.057951133529e+04 
       2.044691774556e-02       3.051942208304e+04 
       2.057451153743e-02       3.045803865548e+04 
       2.070218420485e-02       3.039562190141e+04 
       2.082993728758e-02       3.033204683162e+04 
       2.095777236299e-02       3.026732227700e+04 
       2.108569104696e-02       3.020163572362e+04 
       2.121369499470e-02       3.013492195784e+04 
       2.134178590168e-02       3.006720745685e+04 
       2.146996550456e-02       2.999858725190e+04 
       2.159823558209e-02       2.992882261157e+04 
       2.172659795618e-02       2.985828178805e+04 
       2.185505449283e-02       2.978670135131e+04 
       2.198360710323e-02       2.971413123881e+04 
       2.211225774483e-02       2.964076416312e+04 
       2.224100842244e-02       2.956651982685e+04 
       2.236986118938e-02       2.949141951658e+04 
       2.249881814868e-02       2.941562345582e+04 
       2.262788145429e-02       2.933887413016e+04 
       2.275705331236e-02       2.926135624150e+04 
       2.288633598249e-02       2.918303685826e+04 
       2.301573177914e-02       2.910394957166e+04 
       2.314524307298e-02       2.902407149617e+04 
       2.327487229231e-02       2.894352822581e+04 
       2.340462192455e-02       2.886231986478e+04 
       2.353449451777e-02       2.878043918707e+04 
       2.366449268225e-02       2.869786274380e+04 
       2.379461909211e-02       2.861464143920e+04 
       2.392487648698e-02       2.853074820241e+04 
       2.405526767372e-02       2.844617599452e+04 
       2.418579552827e-02       2.836106489997e+04 
       2.431646299740e-02       2.827535223920e+04 
       2.444727310069e-02       2.818916799610e+04 
       2.457822893250e-02       2.810229057788e+04 
       2.470933366396e-02       2.801504164223e+04 
       2.484059054514e-02       2.792716808250e+04 
       2.497200290717e-02       2.783877375722e+04 
       2.510357416456e-02       2.774982327672e+04 
       2.523530781746e-02       2.766047058883e+04 
       2.536720745413e-02       2.757064224781e+04 
       2.549927675340e-02       2.748038400271e+04 
       2.563151948728e-02       2.738978465456e+04 
       2.576393952359e-02       2.729855946491e+04 
       2.589654082881e-02       2.720723194844e+04 
       2.602932747084e-02       2.711514882206e+04 
       2.616230362206e-02       2.702296467032e+04 
       2.629547356238e-02       2.693030243265e+04 
       2.642884168240e-02       2.683723373821e+04 
       2.656241248677e-02       2.674388486759e+04 
       2.669619059755e-02       2.665020355272e+04 
       2.683018075785e-02       2.655622595727e+04 
       2.696438783544e-02       2.646201459727e+04 
       2.709881682662e-02       2.636744765182e+04 
       2.723347286020e-02       2.627265257638e+04 
       2.736836120160e-02       2.617754279523e+04 
       2.750348725713e-02       2.608217104584e+04 
       2.763885657847e-02       2.598653061902e+04 
       2.777447486728e-02       2.589069106042e+04 
       2.791034798000e-02       2.579460073479e+04 
       2.804648193283e-02       2.569848763629e+04 
       2.818288290698e-02       2.560204180170e+04 
       2.831955725404e-02       2.550542035426e+04 
       2.845651150158e-02       2.540860998414e+04 
       2.859375235908e-02       2.531158674378e+04 
       2.873128672398e-02       2.521446030455e+04 
       2.886912168802e-02       2.511717955057e+04 
       2.900726454390e-02       2.501985264886e+04 
       2.914572279218e-02       2.492223401114e+04 
       2.928450414844e-02       2.482470649343e+04 
       2.942361655083e-02       2.472692630039e+04 
       2.956306816786e-02       2.462905745979e+04 
       2.970286740663e-02       2.453107676049e+04 
       2.984302292131e-02       2.443301877587e+04 
       2.998354362210e-02       2.433509857570e+04 
       3.012443868456e-02       2.423675887535e+04 
       3.026571755931e-02       2.413863757272e+04 
       3.040738998228e-02       2.404033730866e+04 
       3.054946598532e-02       2.394201802218e+04 
       3.069195590741e-02       2.384363702522e+04 
       3.083487040633e-02       2.374524674286e+04 
       3.097822047089e-02       2.364682769330e+04 
       3.112201743380e-02       2.354842352221e+04 
       3.126627298511e-02       2.345001227921e+04 
       3.141099918633e-02       2.335158354991e+04 
       3.155620848524e-02       2.325323943207e+04 
       3.170191373147e-02       2.315480774121e+04 
       3.184812819282e-02       2.305637475188e+04 
       3.199486557246e-02       2.295799872353e+04 
       3.214214002696e-02       2.285963171709e+04 
       3.228996618533e-02       2.276127927943e+04 
       3.243835916899e-02       2.266309882585e+04 
       3.258733461285e-02       2.256492485277e+04 
       3.273690868750e-02       2.246659369625e+04 
       3.288709812264e-02       2.236853226661e+04 
       3.303792023171e-02       2.227041943221e+04 
       3.318939293797e-02       2.217238439632e+04 
       3.334153480205e-02       2.207436898725e+04 
       3.349436505096e-02       2.197656527204e+04 
       3.364790360889e-02       2.187872754037e+04 
       3.380217112969e-02       2.178074309378e+04 
       3.395718903136e-02       2.168318223182e+04 
       3.411297953245e-02       2.158555530418e+04 
       3.426956569079e-02       2.148801091820e+04 
       3.442697144448e-02       2.139053733382e+04 
       3.458522165545e-02       2.129314564788e+04 
       3.474434215565e-02       2.119579434497e+04 
       3.490435979628e-02       2.109857113243e+04 
       3.506530250003e-02       2.100147199154e+04 
       3.522719931678e-02       2.090442569906e+04 
       3.539008048290e-02       2.080740010947e+04 
       3.555397748446e-02       2.071058438719e+04 
       3.571892312477e-02       2.061387274254e+04 
       3.588495159637e-02       2.051707773983e+04 
       3.605209855814e-02       2.042050801168e+04 
       3.622040121761e-02       2.032405220608e+04 
       3.638989841925e-02       2.022755000223e+04 
       3.656063073904e-02       2.013116780269e+04 
       3.673264058585e-02       2.003493999839e+04 
       3.690597231039e-02       1.993875225287e+04 
       3.708067232226e-02       1.984256916911e+04 
       3.725678921591e-02       1.974656668582e+04 
       3.743437390626e-02       1.965062728714e+04 
       3.761347977496e-02       1.955480986979e+04 
       3.779416282820e-02       1.945885480778e+04 
       3.797648186732e-02       1.936316008372e+04 
       3.816049867327e-02       1.926746065775e+04 
       3.834627820650e-02       1.917182133645e+04 
       3.853388882362e-02       1.907622157132e+04 
       3.872340251272e-02       1.898066386222e+04 
       3.891489514922e-02       1.888508119872e+04 
       3.910844677433e-02       1.878964840625e+04 
       3.930414189869e-02       1.869411978924e+04 
       3.950206983382e-02       1.859874138490e+04 
       3.970232505453e-02       1.850331027649e+04 
       3.990500759573e-02       1.840787342461e+04 
       4.011022348764e-02       1.831241589549e+04 
       4.031808523383e-02       1.821694365438e+04 
       4.052871233725e-02       1.812142266273e+04 
       4.074223188001e-02       1.802592161229e+04 
       4.095877916360e-02       1.793034213615e+04 
       4.117849841712e-02       1.783469468317e+04 
       4.140154358224e-02       1.773895561720e+04 
       4.162807918503e-02       1.764307996720e+04 
       4.185828130610e-02       1.754719398870e+04 
       4.209233866265e-02       1.745123513597e+04 
       4.233045381778e-02       1.735491517437e+04 
       4.257284453539e-02       1.725858973984e+04 
       4.281974530159e-02       1.716204907316e+04 
       4.307140903750e-02       1.706530177627e+04 
       4.332810903241e-02       1.696827192811e+04 
       4.359014113145e-02       1.687107724177e+04 
       4.385782621832e-02       1.677358978520e+04 
       4.413151304095e-02       1.667576716267e+04 
       4.441158143710e-02       1.657757949483e+04 
       4.469844602830e-02       1.647908609468e+04 
       4.499256046370e-02       1.638013179555e+04 
       4.529442231246e-02       1.628073814226e+04 
       4.560457872367e-02       1.618085410875e+04 
       4.592363299841e-02       1.608038269622e+04 
       4.625225225019e-02       1.597932679497e+04 
       4.659117636935e-02       1.587760292422e+04 
       4.694122855707e-02       1.577518709854e+04 
       4.730332775637e-02       1.567194860710e+04 
       4.767850338678e-02       1.556787324296e+04 
       4.806791288897e-02       1.546272553473e+04 
       4.847286271253e-02       1.535653788027e+04 
       4.889483354190e-02       1.524918351186e+04 
       4.933551076140e-02       1.514044142375e+04 
       4.979682142297e-02       1.503022549000e+04 
       5.028097931328e-02       1.491831548984e+04 
       5.079054013723e-02       1.480447357386e+04 
       5.132846935679e-02       1.468848045056e+04 
       5.189822585796e-02       1.457006088248e+04 
       5.250386535445e-02       1.444873152536e+04 
       5.315016822173e-02       1.432404484541e+04 
       5.384279713828e-02       1.419540960169e+04 
       5.458849014299e-02       1.406207534037e+04 
       5.539529375382e-02       1.392307920072e+04 
       5.627283713907e-02       1.377716880190e+04 
       5.723263914213e-02       1.362258898303e+04 
       5.828842014362e-02       1.345714975347e+04 
