# Matter power spectrum P(k) at redshift z=0
# for k=1.00946e-05 to 124.492 h/Mpc,
# number of wavenumbers equal to 713
#    1:k (h/Mpc)              2:P (Mpc/h)^3        
       1.009462240743e-05       6.421831109645e+01 
       2.254505961125e-05       1.405340658736e+02 
       3.503639398545e-05       2.148503465049e+02 
       4.760002062644e-05       2.884479063871e+02 
       6.026781993044e-05       3.618755713126e+02 
       7.307242324431e-05       4.354857675720e+02 
       8.604748647405e-05       5.095542112140e+02 
       9.922797506845e-05       5.843256210127e+02 
       1.126504638230e-04       6.600163712171e+02 
       1.263534549787e-04       7.369011889484e+02 
       1.403777181064e-04       8.152320528310e+02 
       1.547666552383e-04       8.952521129409e+02 
       1.695666946080e-04       9.772311642759e+02 
       1.848277161308e-04       1.061435699881e+03 
       2.006035113408e-04       1.148150148620e+03 
       2.169522798142e-04       1.237679548064e+03 
       2.339371630338e-04       1.330364227489e+03 
       2.516268150538e-04       1.426546425174e+03 
       2.700960070185e-04       1.526618736160e+03 
       2.894262593624e-04       1.630975515662e+03 
       3.097064911117e-04       1.740072751345e+03 
       3.310336698328e-04       1.854382012794e+03 
       3.535134381426e-04       1.974425387314e+03 
       3.772606830569e-04       2.100753466119e+03 
       4.024000026768e-04       2.233964403361e+03 
       4.290660109132e-04       2.374690474757e+03 
       4.574034056474e-04       2.523607179762e+03 
       4.875667101125e-04       2.681421488351e+03 
       5.197195834170e-04       2.848869706760e+03 
       5.540335872574e-04       3.026707262389e+03 
       5.906862964197e-04       3.215696796634e+03 
       6.298586561349e-04       3.416590536044e+03 
       6.717315254505e-04       3.630111570415e+03 
       7.164814070611e-04       3.856927942479e+03 
       7.642754516026e-04       4.097627254474e+03 
       8.152659333972e-04       4.352688102002e+03 
       8.695845120546e-04       4.622448898228e+03 
       9.273366989552e-04       4.907086141516e+03 
       9.885970128911e-04       5.206589737157e+03 
       1.053405309852e-03       5.520751318158e+03 
       1.121764693252e-03       5.849159988869e+03 
       1.193641256173e-03       6.191211769152e+03 
       1.268965700769e-03       6.546120340517e+03 
       1.347636662007e-03       6.912913128784e+03 
       1.429525377859e-03       7.290546446312e+03 
       1.514481230526e-03       7.677887057238e+03 
       1.602337648742e-03       8.073736846131e+03 
       1.692917903541e-03       8.476879168057e+03 
       1.786040426791e-03       8.886105552837e+03 
       1.881523404750e-03       9.300244014656e+03 
       1.979188521292e-03       9.718173403626e+03 
       2.078863828915e-03       1.013883860276e+04 
       2.180385801262e-03       1.056126213493e+04 
       2.283600667431e-03       1.098453967020e+04 
       2.388365150148e-03       1.140785506573e+04 
       2.494546733058e-03       1.183046837808e+04 
       2.602023573595e-03       1.225171325506e+04 
       2.710684162595e-03       1.267099632905e+04 
       2.820426814059e-03       1.308779412199e+04 
       2.931159050965e-03       1.350163981123e+04 
       3.042796937197e-03       1.391213914668e+04 
       3.155264392250e-03       1.431892619989e+04 
       3.268492514502e-03       1.472168765918e+04 
       3.382418930307e-03       1.512016821271e+04 
       3.496987179726e-03       1.551412600811e+04 
       3.612146144974e-03       1.590336551187e+04 
       3.727849524222e-03       1.628771594653e+04 
       3.844055351094e-03       1.666703111259e+04 
       3.960725558586e-03       1.704119791387e+04 
       4.077825585161e-03       1.741010617579e+04 
       4.195324020231e-03       1.777368427224e+04 
       4.313192285913e-03       1.813185192784e+04 
       4.431404351909e-03       1.848457376847e+04 
       4.549936480402e-03       1.883179995114e+04 
       4.668766998006e-03       1.917350142474e+04 
       4.787876091995e-03       1.950965120095e+04 
       4.907245628250e-03       1.984028027545e+04 
       5.026858988601e-03       2.016536526653e+04 
       5.146700925436e-03       2.048491729333e+04 
       5.266757431696e-03       2.079894924926e+04 
       5.387015624539e-03       2.110747598969e+04 
       5.507463641157e-03       2.141052613549e+04 
       5.628090545409e-03       2.170812866251e+04 
       5.748886244053e-03       2.200029881862e+04 
       5.869841411523e-03       2.228707998034e+04 
       5.990947422313e-03       2.256851635425e+04 
       6.112196290122e-03       2.284463402407e+04 
       6.233580613033e-03       2.311547917083e+04 
       6.355093524064e-03       2.338109216672e+04 
       6.476728646525e-03       2.364150877048e+04 
       6.598480053652e-03       2.389678766812e+04 
       6.720342232080e-03       2.414698689493e+04 
       6.842310048746e-03       2.439211304316e+04 
       6.964378720865e-03       2.463226231021e+04 
       7.086543788662e-03       2.486745517663e+04 
       7.208801090585e-03       2.509772513566e+04 
       7.331146740743e-03       2.532316777715e+04 
       7.453577108344e-03       2.554386711852e+04 
       7.576088798944e-03       2.575975905412e+04 
       7.698678637324e-03       2.597094306405e+04 
       7.821343651836e-03       2.617748395979e+04 
       7.944081060080e-03       2.637941763560e+04 
       8.066888255784e-03       2.657680705868e+04 
       8.189762796781e-03       2.676969934029e+04 
       8.312702393963e-03       2.695813744115e+04 
       8.435704901149e-03       2.714216698282e+04 
       8.558768305756e-03       2.732184728939e+04 
       8.681890720227e-03       2.749721494767e+04 
       8.805070374121e-03       2.766833076651e+04 
       8.928305606838e-03       2.783523921642e+04 
       9.051594860891e-03       2.799797721277e+04 
       9.174936675710e-03       2.815661355501e+04 
       9.298329681906e-03       2.831118661049e+04 
       9.421772595969e-03       2.846174172767e+04 
       9.545264215367e-03       2.860833474735e+04 
       9.668803414005e-03       2.875099935202e+04 
       9.792389138016e-03       2.888978367094e+04 
       9.916020401862e-03       2.902473434700e+04 
       1.003969628471e-02       2.915589460151e+04 
       1.016341592710e-02       2.928330285845e+04 
       1.028717852779e-02       2.940700909356e+04 
       1.041098334087e-02       2.952705599747e+04 
       1.053482967311e-02       2.964349929671e+04 
       1.065871688139e-02       2.975637192799e+04 
       1.078264437043e-02       2.986571947577e+04 
       1.090661159061e-02       2.997158829255e+04 
       1.103061803593e-02       3.007401367565e+04 
       1.115466324216e-02       3.017303600901e+04 
       1.127874678510e-02       3.026869786803e+04 
       1.140286827892e-02       3.036103807670e+04 
       1.152702737470e-02       3.045009385384e+04 
       1.165122375897e-02       3.053591214717e+04 
       1.177545715243e-02       3.061852854919e+04 
       1.189972730874e-02       3.069798519417e+04 
       1.202403401335e-02       3.077431556637e+04 
       1.214837708248e-02       3.084756376005e+04 
       1.227275636211e-02       3.091776714483e+04 
       1.239717172709e-02       3.098495638633e+04 
       1.252162308031e-02       3.104918297964e+04 
       1.264611035186e-02       3.111036509634e+04 
       1.277063349839e-02       3.116875218457e+04 
       1.289519250234e-02       3.122427349948e+04 
       1.301978737141e-02       3.127686517124e+04 
       1.314441813793e-02       3.132675825018e+04 
       1.326908485837e-02       3.137388945317e+04 
       1.339378761283e-02       3.141830657429e+04 
       1.351852650461e-02       3.146005524750e+04 
       1.364330165981e-02       3.149918759323e+04 
       1.376811322698e-02       3.153556534109e+04 
       1.389296137675e-02       3.156931678958e+04 
       1.401784630156e-02       3.160064686870e+04 
       1.414276821540e-02       3.162952349872e+04 
       1.426772735353e-02       3.165590600200e+04 
       1.439272397235e-02       3.167973530646e+04 
       1.451775834915e-02       3.170121561005e+04 
       1.464283078199e-02       3.172034489640e+04 
       1.476794158957e-02       3.173708541908e+04 
       1.489309111111e-02       3.175134089522e+04 
       1.501827970632e-02       3.176346527324e+04 
       1.514350775529e-02       3.177336650802e+04 
       1.526877565847e-02       3.178097233150e+04 
       1.539408383668e-02       3.178636540199e+04 
       1.551943273109e-02       3.178952638534e+04 
       1.564482280329e-02       3.179061974132e+04 
       1.577025453526e-02       3.178962576401e+04 
       1.589572842955e-02       3.178648569179e+04 
       1.602124500924e-02       3.178133892320e+04 
       1.614680481816e-02       3.177412433809e+04 
       1.627240842093e-02       3.176487508043e+04 
       1.639805640313e-02       3.175372103304e+04 
       1.652374937146e-02       3.174080401852e+04 
       1.664948795394e-02       3.172578938179e+04 
       1.677527280002e-02       3.170872550722e+04 
       1.690110458088e-02       3.169014511682e+04 
       1.702698398961e-02       3.166962483773e+04 
       1.715291174144e-02       3.164729319359e+04 
       1.727888857404e-02       3.162318876400e+04 
       1.740491524776e-02       3.159730769375e+04 
       1.753099254592e-02       3.156960322183e+04 
       1.765712127514e-02       3.154042760184e+04 
       1.778330226564e-02       3.150940536051e+04 
       1.790953637162e-02       3.147695787213e+04 
       1.803582447156e-02       3.144274486758e+04 
       1.816216746862e-02       3.140694846736e+04 
       1.828856629106e-02       3.136956303953e+04 
       1.841502189259e-02       3.133062561563e+04 
       1.854153525284e-02       3.129023688339e+04 
       1.866810737779e-02       3.124847984820e+04 
       1.879473930021e-02       3.120512140864e+04 
       1.892143208017e-02       3.116021002714e+04 
       1.904818680551e-02       3.111411495854e+04 
       1.917500459235e-02       3.106645111046e+04 
       1.930188658565e-02       3.101750067112e+04 
       1.942883395974e-02       3.096733387636e+04 
       1.955584791890e-02       3.091570934533e+04 
       1.968292969794e-02       3.086278595495e+04 
       1.981008056283e-02       3.080850714911e+04 
       1.993730181131e-02       3.075307585778e+04 
       2.006459477357e-02       3.069641723249e+04 
       2.019196081288e-02       3.063863458914e+04 
       2.031940132634e-02       3.057951132219e+04 
       2.044691774556e-02       3.051942206987e+04 
       2.057451153743e-02       3.045803864272e+04 
       2.070218420485e-02       3.039562188858e+04 
       2.082993728758e-02       3.033204681918e+04 
       2.095777236299e-02       3.026732226449e+04 
       2.108569104696e-02       3.020163571144e+04 
       2.121369499470e-02       3.013492194560e+04 
       2.134178590168e-02       3.006720744497e+04 
       2.146996550456e-02       2.999858723996e+04 
       2.159823558209e-02       2.992882259958e+04 
       2.172659795618e-02       2.985828177650e+04 
       2.185505449283e-02       2.978670133972e+04 
       2.198360710323e-02       2.971413122762e+04 
       2.211225774483e-02       2.964076415188e+04 
       2.224100842244e-02       2.956651981594e+04 
       2.236986118938e-02       2.949141950567e+04 
       2.249881814868e-02       2.941562344526e+04 
       2.262788145429e-02       2.933887411958e+04 
       2.275705331236e-02       2.926135623137e+04 
       2.288633598249e-02       2.918303684811e+04 
       2.301573177914e-02       2.910394956180e+04 
       2.314524307298e-02       2.902407148630e+04 
       2.327487229231e-02       2.894352821593e+04 
       2.340462192455e-02       2.886231985530e+04 
       2.353449451777e-02       2.878043917759e+04 
       2.366449268225e-02       2.869786273479e+04 
       2.379461909211e-02       2.861464143020e+04 
       2.392487648698e-02       2.853074819375e+04 
       2.405526767372e-02       2.844617598599e+04 
       2.418579552827e-02       2.836106489161e+04 
       2.431646299740e-02       2.827535223086e+04 
       2.444727310069e-02       2.818916798818e+04 
       2.457822893250e-02       2.810229057000e+04 
       2.470933366396e-02       2.801504163479e+04 
       2.484059054514e-02       2.792716807523e+04 
       2.497200290717e-02       2.783877374990e+04 
       2.510357416456e-02       2.774982326967e+04 
       2.523530781746e-02       2.766047058176e+04 
       2.536720745413e-02       2.757064224121e+04 
       2.549927675340e-02       2.748038399878e+04 
       2.563151948728e-02       2.738978464848e+04 
       2.576393952359e-02       2.729855945886e+04 
       2.589654082881e-02       2.720723194251e+04 
       2.602932747084e-02       2.711514881647e+04 
       2.616230362206e-02       2.702296466475e+04 
       2.629547356238e-02       2.693030242742e+04 
       2.642884168240e-02       2.683723373303e+04 
       2.656241248677e-02       2.674388486289e+04 
       2.669619059755e-02       2.665020354807e+04 
       2.683018075785e-02       2.655622595268e+04 
       2.696438783544e-02       2.646201459318e+04 
       2.709881682662e-02       2.636744764778e+04 
       2.723347286020e-02       2.627265257268e+04 
       2.736836120160e-02       2.617754279157e+04 
       2.750348725713e-02       2.608217104268e+04 
       2.763885657847e-02       2.598653061591e+04 
       2.777447486728e-02       2.589069105734e+04 
       2.791034798000e-02       2.579460073229e+04 
       2.804648193283e-02       2.569848763397e+04 
       2.818288290698e-02       2.560204179979e+04 
       2.831955725404e-02       2.550542035236e+04 
       2.845651150158e-02       2.540860998233e+04 
       2.859375235908e-02       2.531158674239e+04 
       2.873128672398e-02       2.521446030316e+04 
       2.886912168802e-02       2.511717955074e+04 
       2.900726454390e-02       2.501985264801e+04 
       2.914572279218e-02       2.492223401038e+04 
       2.928450414844e-02       2.482470649307e+04 
       2.942361655083e-02       2.472692630027e+04 
       2.956306816786e-02       2.462905746005e+04 
       2.970286740663e-02       2.453107676303e+04 
       2.984302292131e-02       2.443301876452e+04 
       2.998354362210e-02       2.433509858134e+04 
       3.012443868456e-02       2.423675888401e+04 
       3.026571755931e-02       2.413863782152e+04 
       3.040738998228e-02       2.404033731080e+04 
       3.054946598532e-02       2.394201802600e+04 
       3.069195590741e-02       2.384363595806e+04 
       3.083487040633e-02       2.374524579636e+04 
       3.097822047089e-02       2.364682769590e+04 
       3.112201743380e-02       2.354842352501e+04 
       3.126627298511e-02       2.345001275804e+04 
       3.141099918633e-02       2.335158355688e+04 
       3.155620848524e-02       2.325323864152e+04 
       3.170191373147e-02       2.315480772106e+04 
       3.184812819282e-02       2.305637567817e+04 
       3.199486557246e-02       2.295799988878e+04 
       3.214214002696e-02       2.285963172020e+04 
       3.228996618533e-02       2.276127982016e+04 
       3.243835916899e-02       2.266309881756e+04 
       3.258733461285e-02       2.256492484460e+04 
       3.273690868750e-02       2.246659472243e+04 
       3.288709812264e-02       2.236853086494e+04 
       3.303792023171e-02       2.227041842491e+04 
       3.318939293797e-02       2.217238423445e+04 
       3.334153480205e-02       2.207436900261e+04 
       3.349436505096e-02       2.197656521705e+04 
       3.364790360889e-02       2.187872696891e+04 
       3.380217112969e-02       2.178074297035e+04 
       3.395718903136e-02       2.168318250444e+04 
       3.411297953245e-02       2.158555548257e+04 
       3.426956569079e-02       2.148801027544e+04 
       3.442697144448e-02       2.139053734289e+04 
       3.458522165545e-02       2.129314565712e+04 
       3.474434215565e-02       2.119579435453e+04 
       3.490435979628e-02       2.109857114229e+04 
       3.506530250003e-02       2.100147200160e+04 
       3.522719931678e-02       2.090442570959e+04 
       3.539008048290e-02       2.080740012015e+04 
       3.555397748446e-02       2.071058439838e+04 
       3.571892312477e-02       2.061387275390e+04 
       3.588495159637e-02       2.051707776250e+04 
       3.605209855814e-02       2.042050788466e+04 
       3.622040121761e-02       2.032405310401e+04 
       3.638989841925e-02       2.022755001062e+04 
       3.656063073904e-02       2.013116706556e+04 
       3.673264058585e-02       2.003493896103e+04 
       3.690597231039e-02       1.993875226337e+04 
       3.708067232226e-02       1.984256918292e+04 
       3.725678921591e-02       1.974656667661e+04 
       3.743437390626e-02       1.965062833473e+04 
       3.761347977496e-02       1.955480988406e+04 
       3.779416282820e-02       1.945885482291e+04 
       3.797648186732e-02       1.936316009935e+04 
       3.816049867327e-02       1.926746067360e+04 
       3.834627820650e-02       1.917182135279e+04 
       3.853388882362e-02       1.907622158780e+04 
       3.872340251272e-02       1.898066387929e+04 
       3.891489514922e-02       1.888508121600e+04 
       3.910844677433e-02       1.878964842402e+04 
       3.930414189869e-02       1.869411980713e+04 
       3.950206983382e-02       1.859874140342e+04 
       3.970232505453e-02       1.850331029524e+04 
       3.990500759573e-02       1.840787344387e+04 
       4.011022348764e-02       1.831241591498e+04 
       4.031808523383e-02       1.821694367437e+04 
       4.052871233725e-02       1.812142268266e+04 
       4.074223188001e-02       1.802592163367e+04 
       4.095877916360e-02       1.793034215719e+04 
       4.117849841712e-02       1.783469470471e+04 
       4.140154358224e-02       1.773895563924e+04 
       4.162807918503e-02       1.764307998950e+04 
       4.185828130610e-02       1.754719401156e+04 
       4.209233866265e-02       1.745123515935e+04 
       4.233045381778e-02       1.735491519767e+04 
       4.257284453539e-02       1.725858975815e+04 
       4.281974530159e-02       1.716204909789e+04 
       4.307140903750e-02       1.706530180263e+04 
       4.332810903241e-02       1.696827241286e+04 
       4.359014113145e-02       1.687107726772e+04 
       4.385782621832e-02       1.677358981172e+04 
       4.413151304095e-02       1.667576718892e+04 
       4.441158143710e-02       1.657757952257e+04 
       4.469844602830e-02       1.647908612276e+04 
       4.499256046370e-02       1.638013182418e+04 
       4.529442231246e-02       1.628073814155e+04 
       4.560457872367e-02       1.618085445591e+04 
       4.592363299841e-02       1.608038271566e+04 
       4.625225225019e-02       1.597932682603e+04 
       4.659117636935e-02       1.587760295571e+04 
       4.694122855707e-02       1.577518713078e+04 
       4.730332775637e-02       1.567194865429e+04 
       4.767850338678e-02       1.556787327493e+04 
       4.806791288897e-02       1.546272556221e+04 
       4.847286271253e-02       1.535653791480e+04 
       4.889483354190e-02       1.524918354779e+04 
       4.933551076140e-02       1.514044146056e+04 
       4.979682142297e-02       1.503022552765e+04 
       5.028097931328e-02       1.491831552904e+04 
       5.079054013723e-02       1.480447361336e+04 
       5.132846935679e-02       1.468848049110e+04 
       5.189822585796e-02       1.457006092378e+04 
       5.250386535445e-02       1.444873156799e+04 
       5.315016822173e-02       1.432404488916e+04 
       5.384279713828e-02       1.419540964677e+04 
       5.458849014299e-02       1.406207538632e+04 
       5.539529375382e-02       1.392307924875e+04 
       5.627283713907e-02       1.377716885164e+04 
       5.723263914213e-02       1.362258903433e+04 
       5.828842014362e-02       1.345714980673e+04 
