# dimensionless total lensed [l(l+1)/2pi] C_l's
# for l=2 to 2500, i.e. number of multipoles equal to 2499
#
# -> if you prefer output in CAMB/HealPix/LensPix units/order, set 'format' to 'camb' in input file
# -> if you don't want to see such a header, set 'headers' to 'no' in input file
# -> for CMB lensing (phi), these are C_l^phi-phi for the lensing potential.
#    Remember the conversion factors:
#    C_l^dd (deflection) = l(l+1) C_l^phi-phi
#    C_l^gg (shear/convergence) = 1/4 (l(l+1))^2 C_l^phi-phi
#
# 1:l     2:TT                     3:EE                     4:TE                     5:BB                     6:phiphi                 7:TPhi                   8:Ephi               
    2       3.815981694421e-10       2.124627729718e-14       7.121628613889e-13       4.658930328380e-21       4.509423287050e-09       9.667914790453e-10      -3.446180330424e-12 
    3       3.012639898769e-10       1.389238086385e-14       8.573169821273e-13       9.279182323744e-21       2.682426302573e-09       6.143244405961e-10      -1.197496000096e-12 
    4       2.504776941206e-10       6.420337318570e-15       7.010798725104e-13       1.538241751230e-20       1.799552338523e-09       4.265981935795e-10       1.252352380975e-13 
    5       2.185601733362e-10       3.217547211686e-15       4.858856139471e-13       2.292543769313e-20       1.295743341121e-09       3.142360113887e-10       5.660212194159e-13 
    6       1.983085769146e-10       1.960549814380e-15       3.212893387306e-13       3.186106819700e-20       9.768220349975e-10       2.414516945100e-10       5.205942390807e-13 
    7       1.853718599960e-10       1.200364705950e-15       2.271350638509e-13       4.214216785460e-20       7.611169153825e-10       1.914297013137e-10       3.309291850429e-13 
    8       1.772929572255e-10       7.062184947500e-16       1.796763898026e-13       5.372593560154e-20       6.081246946926e-10       1.554645021783e-10       1.764588063959e-13 
    9       1.726583833181e-10       4.359830985859e-16       1.510744826821e-13       6.657827875359e-20       4.956070186494e-10       1.287560084744e-10       9.925453482868e-14 
   10       1.705199949621e-10       3.021838725527e-16       1.269349103347e-13       8.067800008766e-20       4.104497101365e-10       1.084232429353e-10       7.420025256897e-14 
   11       1.702281527193e-10       2.390143960278e-16       1.061424018428e-13       9.602056470293e-20       3.437768960526e-10       9.350196322689e-11       6.756788403096e-14 
   12       1.713037088698e-10       2.147956704936e-16       9.290288372658e-14       1.126212231523e-19       2.919514374238e-10       8.073063672144e-11       5.987673067348e-14 
   13       1.734973058783e-10       2.137391968185e-16       8.915972328710e-14       1.305172939353e-19       2.503234267175e-10       7.039528070768e-11       4.957442147448e-14 
   14       1.765214946980e-10       2.251507625879e-16       9.218338038221e-14       1.497694450271e-19       2.164245980664e-10       6.196856876271e-11       4.022544876102e-14 
   15       1.803218209831e-10       2.421073610373e-16       9.748867752376e-14       1.704618591194e-19       1.884915303858e-10       5.500951167324e-11       3.412686065746e-14 
   16       1.847407934301e-10       2.626862495839e-16       1.021054771858e-13       1.927012187023e-19       1.652332220243e-10       4.916382564414e-11       3.078764508121e-14 
   17       1.896199991156e-10       2.890263614589e-16       1.055490096320e-13       2.166145027458e-19       1.456875243272e-10       4.420354639261e-11       2.862134435243e-14 
   18       1.949664395387e-10       3.246453167633e-16       1.088934803495e-13       2.423462770776e-19       1.290607557533e-10       3.996465882703e-11       2.658057094573e-14 
   19       2.007578718883e-10       3.715027569673e-16       1.126384774797e-13       2.700511527018e-19       1.149866836185e-10       3.635470774200e-11       2.467716740983e-14 
   20       2.068580065827e-10       4.305321757209e-16       1.168464759957e-13       2.998953631040e-19       1.028285741004e-10       3.320090604635e-11       2.316975632847e-14 
   21       2.132399410913e-10       5.010398488521e-16       1.207257164229e-13       3.320420160128e-19       9.233155219161e-11       3.044456151331e-11       2.211580920847e-14 
   22       2.198698095395e-10       5.813578834232e-16       1.232253700824e-13       3.666534760449e-19       8.318339688547e-11       2.801751718471e-11       2.142882933041e-14 
   23       2.267517978250e-10       6.702146259544e-16       1.243951768101e-13       4.038763598351e-19       7.521542252012e-11       2.588463890777e-11       2.082304560216e-14 
   24       2.338659842934e-10       7.665364947582e-16       1.247141861137e-13       4.438438756940e-19       6.820059299354e-11       2.399135907000e-11       1.992949783228e-14 
   25       2.411712753612e-10       8.710161899377e-16       1.246099593704e-13       4.866613429333e-19       6.202685255092e-11       2.229925351693e-11       1.863414100017e-14 
   26       2.486054047760e-10       9.850808721471e-16       1.244322190065e-13       5.324086936143e-19       5.655347020899e-11       2.076090207122e-11       1.691461036293e-14 
   27       2.561799240379e-10       1.110325173692e-15       1.239556599738e-13       5.811296759793e-19       5.169328917075e-11       1.936938229948e-11       1.481974314202e-14 
   28       2.639131885262e-10       1.248374649154e-15       1.227850054296e-13       6.328338437588e-19       4.734096242498e-11       1.811907097045e-11       1.243245695291e-14 
   29       2.718005568396e-10       1.400048959663e-15       1.208581163618e-13       6.874923459373e-19       4.346089339601e-11       1.700031181679e-11       9.831213828342e-15 
   30       2.798101756827e-10       1.565877948408e-15       1.182219736110e-13       7.450362683345e-19       3.999764218838e-11       1.598874387372e-11       7.107513242117e-15 
   31       2.878964406507e-10       1.746321017308e-15       1.149165269171e-13       8.053590093456e-19       3.686367753953e-11       1.505126101927e-11       4.369259809720e-15 
   32       2.960574039488e-10       1.941794818590e-15       1.108925328376e-13       8.683309183354e-19       3.403411823467e-11       1.418483432294e-11       1.725542798774e-15 
   33       3.042955563416e-10       2.152642064030e-15       1.060606995290e-13       9.337850080082e-19       3.148129231525e-11       1.339054551943e-11      -7.022580968337e-16 
   34       3.126051861125e-10       2.379217814731e-15       1.003116218677e-13       1.001521051536e-18       2.916013760256e-11       1.266411023091e-11      -2.798552430185e-15 
   35       3.209854015058e-10       2.622241643094e-15       9.351790481864e-14       1.071343127187e-18       2.705290419602e-11       1.200032179749e-11      -4.532826377945e-15 
   36       3.294295322895e-10       2.882568034981e-15       8.552969818737e-14       1.143031673933e-18       2.513670279464e-11       1.138910998987e-11      -5.909569039996e-15 
   37       3.379254789484e-10       3.161072536987e-15       7.620182980599e-14       1.216352915378e-18       2.337962633741e-11       1.081783106556e-11      -6.946556500402e-15 
   38       3.464726423035e-10       3.458571949948e-15       6.549499680462e-14       1.291131318843e-18       2.177355089342e-11       1.028514789739e-11      -7.667080619008e-15 
   39       3.550690993328e-10       3.775879203587e-15       5.340774293831e-14       1.367200011062e-18       2.031025683172e-11       9.791128076928e-12      -8.107353362692e-15 
   40       3.637061367319e-10       4.113824926211e-15       3.995028039177e-14       1.444381373670e-18       1.897156617239e-11       9.333223013159e-12      -8.320158416747e-15 
   41       3.723720907260e-10       4.473134710605e-15       2.514132332366e-14       1.522512654243e-18       1.773492746213e-11       8.907280262572e-12      -8.367666390199e-15 
   42       3.810671252987e-10       4.854012634524e-15       8.995627468851e-15       1.601532801632e-18       1.659438694232e-11       8.511549858159e-12      -8.294114742078e-15 
   43       3.897920356680e-10       5.256422319454e-15      -8.466400533928e-15       1.681423915897e-18       1.554502287963e-11       8.143580981958e-12      -8.146301657509e-15 
   44       3.985436849714e-10       5.680189858052e-15      -2.721472979097e-14       1.762189825505e-18       1.457671035970e-11       7.798934240469e-12      -7.981869608818e-15 
   45       4.073169689137e-10       6.125180965509e-15      -4.722680270202e-14       1.843869037048e-18       1.367725956081e-11       7.472579765625e-12      -7.855788283646e-15 
   46       4.161123918381e-10       6.591915218403e-15      -6.854596877328e-14       1.926573991709e-18       1.284389726520e-11       7.163948956154e-12      -7.773461207993e-15 
   47       4.249300469500e-10       7.081121279708e-15      -9.123976530702e-14       2.010466583420e-18       1.207453364324e-11       6.873133858898e-12      -7.724699405377e-15 
   48       4.337671594959e-10       7.593569651054e-15      -1.153844444150e-13       2.095750380402e-18       1.136432654851e-11       6.599406416968e-12      -7.696502881972e-15 
   49       4.426178073027e-10       8.130075024960e-15      -1.410655394520e-13       2.182673054336e-18       1.070548318090e-11       6.341155414278e-12      -7.672891338743e-15 
   50       4.514751783800e-10       8.691408744513e-15      -1.683615864140e-13       2.271510136336e-18       1.008936856919e-11       6.096430954351e-12      -7.638878251071e-15 
   51       4.603397145084e-10       9.278002712306e-15      -1.972887648535e-13       2.362505451122e-18       9.513965875086e-12       5.864898418603e-12      -7.594057560956e-15 
   52       4.692126950716e-10       9.890169176912e-15      -2.278422094815e-13       2.455918713341e-18       8.978098266745e-12       5.646305892718e-12      -7.542412314376e-15 
   53       4.780937369191e-10       1.052818176755e-14      -2.600113209619e-13       2.552044301278e-18       8.479211436220e-12       5.439889340033e-12      -7.488518708223e-15 
   54       4.869806342969e-10       1.119227361607e-14      -2.937795396372e-13       2.651212807278e-18       8.013283818678e-12       5.244338135917e-12      -7.437571784441e-15 
   55       4.958705916642e-10       1.188265716130e-14      -3.291316274076e-13       2.753740765296e-18       7.575909371109e-12       5.058190399187e-12      -7.394078763173e-15 
   56       5.047646474862e-10       1.259959362555e-14      -3.660781501058e-13       2.859761656904e-18       7.166066578166e-12       4.881212949421e-12      -7.357500058016e-15 
   57       5.136640690325e-10       1.334333750807e-14      -4.046366807329e-13       2.969355639250e-18       6.783128490235e-12       4.713303791434e-12      -7.325570400665e-15 
   58       5.225689522765e-10       1.411411540420e-14      -4.448248889785e-13       3.082597231312e-18       6.425729060194e-12       4.554075018695e-12      -7.295510682399e-15 
   59       5.314781160946e-10       1.491212497207e-14      -4.866606074719e-13       3.199554845260e-18       6.091719046784e-12       4.402835093043e-12      -7.264001738039e-15 
   60       5.403889964653e-10       1.573753389939e-14      -5.301618980336e-13       3.320290317809e-18       5.778121917984e-12       4.258571124425e-12      -7.227158129917e-15 
   61       5.492987889614e-10       1.659048541174e-14      -5.753447880321e-13       3.444817374363e-18       5.481881377095e-12       4.120236192131e-12      -7.181618889214e-15 
   62       5.582084152522e-10       1.747111857954e-14      -6.222157358315e-13       3.572967186982e-18       5.202399772993e-12       3.987726759960e-12      -7.128165144472e-15 
   63       5.671192632312e-10       1.837955075644e-14      -6.707775840004e-13       3.704491670509e-18       4.939493806084e-12       3.861094205890e-12      -7.068871683280e-15 
   64       5.760319524037e-10       1.931587063072e-14      -7.210317324487e-13       3.839100150324e-18       4.692634580370e-12       3.740251257811e-12      -7.006070690173e-15 
   65       5.849462676926e-10       2.028013739958e-14      -7.729781307533e-13       3.976457590675e-18       4.460928624408e-12       3.624963951987e-12      -6.942360970810e-15 
   66       5.938610932454e-10       2.127237994350e-14      -8.266152704835e-13       4.116182822999e-18       4.243098912280e-12       3.514843591523e-12      -6.880617176151e-15 
   67       6.027743462398e-10       2.229259600050e-14      -8.819401775270e-13       4.257846774250e-18       4.037465884552e-12       3.409338704828e-12      -6.823999026640e-15 
   68       6.116839102469e-10       2.334076191320e-14      -9.389490836249e-13       4.401022695874e-18       3.842353844407e-12       3.307886844570e-12      -6.775140958408e-15 
   69       6.205908028966e-10       2.441686600868e-14      -9.976396161393e-13       4.545452629547e-18       3.657448192372e-12       3.210423677150e-12      -6.733509771683e-15 
   70       6.294965341006e-10       2.552088053003e-14      -1.058009040243e-12       4.690911644046e-18       3.482680371892e-12       3.116963075954e-12      -6.697525683105e-15 
   71       6.384021233851e-10       2.665275111681e-14      -1.120053628490e-12       4.837158385221e-18       3.317818872403e-12       3.027442525301e-12      -6.665323004377e-15 
   72       6.473080592614e-10       2.781239624977e-14      -1.183768670514e-12       4.983934634261e-18       3.162461129456e-12       2.941719166896e-12      -6.634738405373e-15 
   73       6.562142585960e-10       2.899970669554e-14      -1.249148482726e-12       5.130964865960e-18       3.016025424841e-12       2.859565846290e-12      -6.603299177244e-15 
   74       6.651200259814e-10       3.021454495142e-14      -1.316186418008e-12       5.277955806980e-18       2.877742786714e-12       2.780667159334e-12      -6.568211495519e-15 
   75       6.740240131059e-10       3.145674469002e-14      -1.384874875412e-12       5.424595994116e-18       2.746648889717e-12       2.704615498637e-12      -6.526348683211e-15 
   76       6.829248718050e-10       3.272611283302e-14      -1.455205029344e-12       5.570641487131e-18       2.621801915747e-12       2.631017683287e-12      -6.475126086809e-15 
   77       6.918234405104e-10       3.402243743641e-14      -1.527165938671e-12       5.716192028527e-18       2.502999906654e-12       2.559846035809e-12      -6.415335833376e-15 
   78       7.007208845472e-10       3.534548024096e-14      -1.600745292016e-12       5.861464674261e-18       2.390180116188e-12       2.491144440433e-12      -6.348810083177e-15 
   79       7.096180118462e-10       3.669497367759e-14      -1.675929677742e-12       6.006713410233e-18       2.283201243974e-12       2.424921780676e-12      -6.277586615414e-15 
   80       7.185152465388e-10       3.807062036596e-14      -1.752704587893e-12       6.152230477219e-18       2.181839969149e-12       2.361150253395e-12      -6.203915272045e-15 
   81       7.274126025520e-10       3.947209261314e-14      -1.831054422142e-12       6.298347695801e-18       2.085787483987e-12       2.299763682844e-12      -6.130264401606e-15 
   82       7.363096572032e-10       4.089903191218e-14      -1.910962491732e-12       6.445437791307e-18       1.994646027532e-12       2.240655834728e-12      -6.059327303029e-15 
   83       7.452055247953e-10       4.235104844079e-14      -1.992411023425e-12       6.593915718740e-18       1.907925419232e-12       2.183678730263e-12      -5.994028669464e-15 
   84       7.540993392370e-10       4.382772744377e-14      -2.075381080749e-12       6.744184062897e-18       1.825150200877e-12       2.128680898184e-12      -5.936852951953e-15 
   85       7.629918516748e-10       4.532865069418e-14      -2.159852304115e-12       6.896455936508e-18       1.746209063431e-12       2.075633109912e-12      -5.887687404704e-15 
   86       7.718840505332e-10       4.685337768727e-14      -2.245803134652e-12       7.050905015052e-18       1.671057261686e-12       2.024520494436e-12      -5.845631614286e-15 
   87       7.807766584511e-10       4.840143869307e-14      -2.333210895583e-12       7.207719230504e-18       1.599609572660e-12       1.975303453882e-12      -5.809638907568e-15 
   88       7.896701144309e-10       4.997233437060e-14      -2.422051794784e-12       7.367101156359e-18       1.531738688183e-12       1.927916648797e-12      -5.778511399239e-15 
   89       7.985645559888e-10       5.156553538233e-14      -2.512300927335e-12       7.529268392647e-18       1.467273607500e-12       1.882267983429e-12      -5.750895039321e-15 
   90       8.074598013046e-10       5.318048200839e-14      -2.603932278079e-12       7.694453950962e-18       1.405998029858e-12       1.838237591010e-12      -5.725274660682e-15 
   91       8.163553313717e-10       5.481658376095e-14      -2.696918724172e-12       7.862906639477e-18       1.347648747103e-12       1.795676819036e-12      -5.699969026554e-15 
   92       8.252502721470e-10       5.647321899856e-14      -2.791232037643e-12       8.034891447968e-18       1.291914036272e-12       1.754407214552e-12      -5.673125878048e-15 
   93       8.341438504353e-10       5.814974609157e-14      -2.886843047378e-12       8.210590307216e-18       1.238500732034e-12       1.714263002897e-12      -5.643119274553e-15 
   94       8.430368787467e-10       5.984553967717e-14      -2.983722147411e-12       8.389786457297e-18       1.187350474694e-12       1.675228036135e-12      -5.609820731591e-15 
   95       8.519304617977e-10       6.155995916944e-14      -3.081838870158e-12       8.572133099240e-18       1.138453165306e-12       1.637317661404e-12      -5.573510995107e-15 
   96       8.608255314806e-10       6.329233746997e-14      -3.181161738479e-12       8.757247821524e-18       1.091780528010e-12       1.600536650596e-12      -5.534495345113e-15 
   97       8.697228355155e-10       6.504198074076e-14      -3.281658270420e-12       8.944711617558e-18       1.047285445388e-12       1.564878782668e-12      -5.493104165413e-15 
   98       8.786229261038e-10       6.680816817709e-14      -3.383294983955e-12       9.134067903157e-18       1.004901293809e-12       1.530326425948e-12      -5.449693513327e-15 
   99       8.875261485807e-10       6.859015178038e-14      -3.486037401731e-12       9.324821534016e-18       9.645412787849e-13       1.496850120450e-12      -5.404645689413e-15 
  100       8.964326300678e-10       7.038715613115e-14      -3.589850055808e-12       9.516437823187e-18       9.260977703167e-13       1.464408160177e-12      -5.358369807192e-15 
  101       9.053422681262e-10       7.219837816183e-14      -3.694696492410e-12       9.708341558559e-18       8.894416382495e-13       1.432946175435e-12      -5.311302362870e-15 
  102       9.142547194093e-10       7.402298692968e-14      -3.800539276659e-12       9.899916020333e-18       8.544215876206e-13       1.402396715141e-12      -5.263907805064e-15 
  103       9.231693883152e-10       7.586012338966e-14      -3.907339997323e-12       1.009050199849e-17       8.208634940114e-13       1.372678829134e-12      -5.216679104522e-15 
  104       9.320857166064e-10       7.770891563640e-14      -4.015059391897e-12       1.027954241335e-17       7.886063744749e-13       1.343717080543e-12      -5.170036287991e-15 
  105       9.410041212646e-10       7.956852746407e-14      -4.123657730852e-12       1.046704054263e-17       7.576172658615e-13       1.315502407520e-12      -5.124005202540e-15 
  106       9.499251627613e-10       8.143811597338e-14      -4.233094494380e-12       1.065316215066e-17       7.278906980271e-13       1.288038742621e-12      -5.078496217093e-15 
  107       9.588492474622e-10       8.331681663183e-14      -4.343328262680e-12       1.083809602289e-17       6.994131851271e-13       1.261324115205e-12      -5.033401838346e-15 
