# dimensionless total lensed [l(l+1)/2pi] C_l's
# for l=2 to 2500, i.e. number of multipoles equal to 2499
#
# -> if you prefer output in CAMB/HealPix/LensPix units/order, set 'format' to 'camb' in input file
# -> if you don't want to see such a header, set 'headers' to 'no' in input file
# -> for CMB lensing (phi), these are C_l^phi-phi for the lensing potential.
#    Remember the conversion factors:
#    C_l^dd (deflection) = l(l+1) C_l^phi-phi
#    C_l^gg (shear/convergence) = 1/4 (l(l+1))^2 C_l^phi-phi
#
# 1:l     2:TT                     3:EE                     4:TE                     5:BB                     6:phiphi                 7:TPhi                   8:Ephi               
    2       1.742768934939e-10       7.643136179988e-15       5.080512765851e-13       2.854545929801e-19       9.460015681236e-09       5.821226992251e-10      -2.716983577660e-12 
    3       1.629253120273e-10       1.193595521684e-14       6.231552043014e-13       5.711297681696e-19       5.865077537410e-09       4.126000987509e-10      -2.299462047731e-12 
    4       1.523587062041e-10       1.276082558533e-14       6.277232213556e-13       9.523660189108e-19       4.085733461994e-09       3.123134059499e-10      -1.743058025137e-12 
    5       1.442530609714e-10       1.069437742954e-14       5.719105410089e-13       1.429437932086e-18       3.050337921269e-09       2.467122257855e-10      -1.206813193860e-12 
    6       1.384005004850e-10       7.408057102365e-15       4.891817905652e-13       2.002672573251e-18       2.382365737983e-09       2.007012826007e-10      -7.438592110634e-13 
    7       1.343224301396e-10       4.424439511175e-15       4.015907341665e-13       2.672439639255e-18       1.920581067441e-09       1.668480055868e-10      -3.777294194358e-13 
    8       1.316683919595e-10       2.477439653471e-15       3.216597413106e-13       3.439140523462e-18       1.585446889180e-09       1.411061476707e-10      -1.142214839900e-13 
    9       1.300577294599e-10       1.548661589818e-15       2.560805674177e-13       4.303196714483e-18       1.333925040985e-09       1.210622766132e-10       5.270879256404e-14 
   10       1.292663043072e-10       1.237933662235e-15       2.076421646940e-13       5.265037972795e-18       1.139946014019e-09       1.051394607977e-10       1.372813008871e-13 
   11       1.290889097229e-10       1.138898481459e-15       1.762573027667e-13       6.325090735228e-18       9.632006513130e-10       9.258071178258e-11       1.580814744406e-13 
   12       1.293751734759e-10       1.033237953459e-15       1.598824589625e-13       7.483767184687e-18       8.414416368844e-10       8.182872162619e-11       1.367576120901e-13 
   13       1.300236355571e-10       8.908272926652e-16       1.553262428164e-13       8.741455392359e-18       7.414812611342e-10       7.286726628271e-11       9.199858583083e-14 
   14       1.309965757720e-10       7.688340068836e-16       1.589644425585e-13       1.009851089309e-17       6.583239605912e-10       6.547438918433e-11       4.020796813152e-14 
   15       1.321933740298e-10       7.147832788517e-16       1.673632167141e-13       1.155524999365e-17       5.883407132338e-10       5.904415384992e-11      -7.131563493094e-15 
   16       1.335555162089e-10       7.282861143492e-16       1.777527599602e-13       1.311194504062e-17       5.288397638851e-10       5.351847392561e-11      -4.244909083619e-14 
   17       1.350918168784e-10       7.765994609463e-16       1.882302629458e-13       1.476882179275e-17       4.778010614924e-10       4.876218678343e-11      -6.265796200511e-14 
   18       1.367731869477e-10       8.268063631987e-16       1.976525157413e-13       1.652605793285e-17       4.335074070114e-10       4.460248747053e-11      -6.835254646261e-14 
   19       1.385927277562e-10       8.767481952681e-16       2.058253755373e-13       1.838378984184e-17       3.952530900609e-10       4.095944813878e-11      -6.227319424106e-14 
   20       1.404893830585e-10       9.361717666614e-16       2.129030502445e-13       2.034210509116e-17       3.615653020301e-10       3.768763732588e-11      -4.905014684437e-14 
   21       1.424691164787e-10       1.021647434055e-15       2.193368148398e-13       2.240106293500e-17       3.319140871848e-10       3.476621462471e-11      -3.275131073245e-14 
   22       1.445231308154e-10       1.150798732215e-15       2.257436836612e-13       2.456068544764e-17       3.055884823713e-10       3.216868478092e-11      -1.769229840843e-14 
   23       1.466522627190e-10       1.323054585273e-15       2.325890872397e-13       2.682098218727e-17       2.822259672948e-10       2.986555188795e-11      -6.268536323166e-15 
   24       1.488359433553e-10       1.530520760277e-15       2.402434672518e-13       2.918194127496e-17       2.612861632399e-10       2.779679410217e-11      -6.451779981654e-17 
   25       1.510750986577e-10       1.768539309982e-15       2.486899222813e-13       3.164355844785e-17       2.425221316450e-10       2.593195403403e-11       9.834944143494e-16 
   26       1.533604930065e-10       2.033264423438e-15       2.576906732615e-13       3.420582620811e-17       2.255935989029e-10       2.423376567304e-11      -2.159151377539e-15 
   27       1.556949280055e-10       2.325160431314e-15       2.668200982426e-13       3.686875937043e-17       2.102975067946e-10       2.269360817896e-11      -7.928981763775e-15 
   28       1.580734820750e-10       2.645461147912e-15       2.755307098733e-13       3.963238800491e-17       1.963703298133e-10       2.129966780686e-11      -1.440478400748e-14 
   29       1.605028652395e-10       2.992877550402e-15       2.833772158123e-13       4.249678754013e-17       1.837406590006e-10       2.004084898925e-11      -2.037630328528e-14 
   30       1.629786040436e-10       3.364703058242e-15       2.898710129218e-13       4.546206096116e-17       1.722723855357e-10       1.889168101154e-11      -2.465889024967e-14 
   31       1.654846178763e-10       3.758559274934e-15       2.945272761939e-13       4.852833851111e-17       1.617310709850e-10       1.781753521120e-11      -2.614573057636e-14 
   32       1.680280641561e-10       4.177005325297e-15       2.972523278092e-13       5.169579908594e-17       1.520622110325e-10       1.681749204324e-11      -2.501394170622e-14 
   33       1.706145871496e-10       4.624732639575e-15       2.981047359467e-13       5.496466313279e-17       1.431975304586e-10       1.589573039532e-11      -2.199187124675e-14 
   34       1.732408853533e-10       5.106645042632e-15       2.971950385656e-13       5.833518713800e-17       1.350130292836e-10       1.505033870260e-11      -1.797553058442e-14 
   35       1.759053965356e-10       5.625056880011e-15       2.946687134858e-13       6.180765024666e-17       1.274665763415e-10       1.427558058551e-11      -1.370504974802e-14 
   36       1.785992239076e-10       6.181543360764e-15       2.907244436758e-13       6.538236891709e-17       1.204972497910e-10       1.355922504118e-11      -9.998633729324e-15 
   37       1.813090143939e-10       6.777489206397e-15       2.855646513304e-13       6.905968446265e-17       1.140139585798e-10       1.288610842028e-11      -7.642058874147e-15 
   38       1.840405036361e-10       7.413450192905e-15       2.791962958674e-13       7.283989657063e-17       1.079998746725e-10       1.225475513216e-11      -6.677469565968e-15 
   39       1.868014191239e-10       8.089557870472e-15       2.715657337309e-13       7.672331172902e-17       1.024359399516e-10       1.166554615286e-11      -6.879644162039e-15 
   40       1.895944335487e-10       8.805666318468e-15       2.626109689160e-13       8.071026323798e-17       9.726911367427e-11       1.111592340322e-11      -7.938614735346e-15 
   41       1.924185903309e-10       9.561568500174e-15       2.522451847178e-13       8.480108022094e-17       9.243083595911e-11       1.060160045323e-11      -9.485676096623e-15 
   42       1.952755366815e-10       1.035777536260e-14       2.403029570549e-13       8.899597839483e-17       8.790677215261e-11       1.012131859623e-11      -1.119626944265e-14 
   43       1.981643405215e-10       1.119495862179e-14       2.265750854542e-13       9.329513663389e-17       8.368478379575e-11       9.673183961859e-12      -1.271031678267e-14 
   44       2.010792227587e-10       1.207373480458e-14       2.108207936200e-13       9.769872608707e-17       7.973399703335e-11       9.253154590945e-12      -1.359917321394e-14 
   45       2.040130137154e-10       1.299465587538e-14       1.928250704198e-13       1.022068808043e-16       7.601580347658e-11       8.856426235872e-12      -1.349093560386e-14 
   46       2.069698010660e-10       1.395818407972e-14       1.725956586298e-13       1.068196004355e-16       7.252429738623e-11       8.482481048366e-12      -1.250013675170e-14 
   47       2.099553077817e-10       1.496470502864e-14       1.502216928527e-13       1.115368175096e-16       6.925539195885e-11       8.131261502738e-12      -1.091994774222e-14 
   48       2.129731061948e-10       1.601453076153e-14       1.258210063173e-13       1.163584215842e-16       6.619462610687e-11       7.801670057312e-12      -9.107648848273e-15 
   49       2.160243985776e-10       1.710789668487e-14       9.954162421575e-14       1.212842570373e-16       6.331639320754e-11       7.491490100313e-12      -7.488208991193e-15 
   50       2.191088027419e-10       1.824499400109e-14       7.152325815279e-14       1.263141201550e-16       6.059164438869e-11       7.198077897846e-12      -6.452956836456e-15 
   51       2.222274692844e-10       1.942608447468e-14       4.176600317293e-14       1.314477545877e-16       5.801525274024e-11       6.920843266702e-12      -6.014864483448e-15 
   52       2.253804312002e-10       2.065141152640e-14       1.022858135118e-14       1.366848508436e-16       5.558474365378e-11       6.659305602262e-12      -6.065881746627e-15 
   53       2.285655047749e-10       2.192116610755e-14      -2.313515407732e-14       1.420250446961e-16       5.329210585900e-11       6.412339970793e-12      -6.472341290330e-15 
   54       2.317781174587e-10       2.323548530881e-14      -5.837660768027e-14       1.474679149427e-16       5.112341897439e-11       6.178134337787e-12      -7.073601224904e-15 
   55       2.350134035361e-10       2.459441273455e-14      -9.554597573178e-14       1.530130292126e-16       4.906309099696e-11       5.954723701491e-12      -7.712754898943e-15 
   56       2.382734951091e-10       2.599777128541e-14      -1.346700757978e-13       1.586600998503e-16       4.710865674353e-11       5.741845863768e-12      -8.340803722640e-15 
   57       2.415617408594e-10       2.744525633540e-14      -1.757696908428e-13       1.644088628309e-16       4.525900328557e-11       5.539471754637e-12      -8.935985510663e-15 
   58       2.448805149961e-10       2.893646837933e-14      -2.188660609765e-13       1.702590327425e-16       4.350989345663e-11       5.347249065141e-12      -9.473868944594e-15 
   59       2.482311334862e-10       3.047091015199e-14      -2.639810053366e-13       1.762103024171e-16       4.185377301091e-11       5.164481952516e-12      -9.927245540340e-15 
   60       2.516137702845e-10       3.204798374726e-14      -3.111370439711e-13       1.822623425609e-16       4.027957778189e-11       4.990110745352e-12      -1.026602161553e-14 
   61       2.550281690346e-10       3.366706742339e-14      -3.603529967565e-13       1.884148691141e-16       3.877580093611e-11       4.823026275327e-12      -1.046694241274e-14 
   62       2.584761543589e-10       3.532777268164e-14      -4.116293500335e-13       1.946678638328e-16       3.734093552398e-11       4.663141232967e-12      -1.054555946035e-14 
   63       2.619595381686e-10       3.702974004218e-14      -4.649598066904e-13       2.010214027890e-16       3.597504433835e-11       4.510524370048e-12      -1.053127957840e-14 
   64       2.654793165634e-10       3.877256410445e-14      -5.203354980883e-13       2.074755947552e-16       3.467661902313e-11       4.365077607491e-12      -1.045836579022e-14 
   65       2.690356113011e-10       4.055579319467e-14      -5.777449624333e-13       2.140305829839e-16       3.344249067220e-11       4.226526357977e-12      -1.036614125670e-14 
   66       2.726276112674e-10       4.237892901341e-14      -6.371741231494e-13       2.206865469874e-16       3.226774042846e-11       4.094409848558e-12      -1.029919321059e-14 
   67       2.762535139462e-10       4.424142628308e-14      -6.986062672508e-13       2.274437043174e-16       3.114561008276e-11       3.968071443268e-12      -1.030757689073e-14 
   68       2.799114472430e-10       4.614259286503e-14      -7.620191849176e-13       2.343023036347e-16       3.006930381300e-11       3.846841204397e-12      -1.043392878271e-14 
   69       2.836025826880e-10       4.808126739679e-14      -8.273759635259e-13       2.412625983090e-16       2.903801717757e-11       3.730648163705e-12      -1.067131830895e-14 
   70       2.873285508026e-10       5.005607540230e-14      -8.946322808224e-13       2.483248706424e-16       2.805197476380e-11       3.619515298621e-12      -1.099718289817e-14 
   71       2.910904837021e-10       5.206552019697e-14      -9.637389861329e-13       2.554894416346e-16       2.711060683877e-11       3.513373595105e-12      -1.138553451215e-14 
   72       2.948889816390e-10       5.410797998966e-14      -1.034642006131e-12       2.627566725401e-16       2.621250831507e-11       3.412057286855e-12      -1.180682877971e-14 
   73       2.987240795455e-10       5.618170498466e-14      -1.107282250606e-12       2.701269664254e-16       2.535539771651e-11       3.315299094505e-12      -1.222783413055e-14 
   74       3.025952135764e-10       5.828481448368e-14      -1.181595518234e-12       2.776007697250e-16       2.453607614386e-11       3.222725464831e-12      -1.261150092927e-14 
   75       3.065011876522e-10       6.041529398790e-14      -1.257512402345e-12       2.851785737992e-16       2.375038624058e-11       3.133851809949e-12      -1.291683060924e-14 
   76       3.104408048733e-10       6.257116020915e-14      -1.334968339899e-12       2.928608349651e-16       2.299424223554e-11       3.048203240850e-12      -1.310822380805e-14 
   77       3.144149686494e-10       6.475099724909e-14      -1.413936082281e-12       3.006477143142e-16       2.226702762970e-11       2.965712709455e-12      -1.318578208546e-14 
   78       3.184249057166e-10       6.695351338405e-14      -1.494399002026e-12       3.085392930577e-16       2.156874542155e-11       2.886387157589e-12      -1.316031978486e-14 
   79       3.224715157540e-10       6.917738236613e-14      -1.576341586823e-12       3.165356497297e-16       2.089898323356e-11       2.810186311512e-12      -1.304443771643e-14 
   80       3.265553515602e-10       7.142124396825e-14      -1.659749553286e-12       3.246368600718e-16       2.025689424112e-11       2.737020494484e-12      -1.285258666560e-14 
   81       3.306765992300e-10       7.368370452930e-14      -1.744609960713e-12       3.328429969193e-16       1.964117810163e-11       2.666748439326e-12      -1.260113090159e-14 
   82       3.348350583307e-10       7.596333749926e-14      -1.830911324852e-12       3.411541300853e-16       1.905006188354e-11       2.599175100990e-12      -1.230841168599e-14 
   83       3.390301220791e-10       7.825868398426e-14      -1.918643731662e-12       3.495703262465e-16       1.848128099535e-11       2.534049469122e-12      -1.199481078121e-14 
   84       3.432611179900e-10       8.056818750813e-14      -2.007787932868e-12       3.580916628396e-16       1.793262831622e-11       2.471125314549e-12      -1.167911128785e-14 
   85       3.475284381307e-10       8.288998467634e-14      -2.098280306372e-12       3.667182726491e-16       1.740374795864e-11       2.410359791044e-12      -1.136674786886e-14 
   86       3.518325607643e-10       8.522208064664e-14      -2.190042268590e-12       3.754503064354e-16       1.689460529055e-11       2.351743900050e-12      -1.105971604459e-14 
   87       3.561736929756e-10       8.756241127492e-14      -2.282990705832e-12       3.842879196989e-16       1.640493579215e-11       2.295241371008e-12      -1.076010293655e-14 
   88       3.605517569057e-10       8.990884255470e-14      -2.377037902886e-12       3.932312728007e-16       1.593423553456e-11       2.240787531627e-12      -1.047008854618e-14 
   89       3.649663759871e-10       9.225917005665e-14      -2.472091471599e-12       4.022805310833e-16       1.548175165844e-11       2.188288178169e-12      -1.019194703365e-14 
   90       3.694168611783e-10       9.461111836811e-14      -2.568054279461e-12       4.114358649916e-16       1.504647285262e-11       2.137618445721e-12      -9.928047996558e-15 
   91       3.739021971993e-10       9.696234053254e-14      -2.664824378192e-12       4.206974501927e-16       1.462711983278e-11       2.088621678474e-12      -9.680857748729e-15 
   92       3.784210287659e-10       9.931041748909e-14      -2.762294932322e-12       4.300654676973e-16       1.422213582004e-11       2.041108300004e-12      -9.452940598968e-15 
   93       3.829720686890e-10       1.016529505235e-13      -2.860362886249e-12       4.395401994734e-16       1.383005510290e-11       1.994902324802e-12      -9.246363711051e-15 
   94       3.875554222787e-10       1.039878557440e-13      -2.958956611643e-12       4.491223314767e-16       1.345069281207e-11       1.949991348657e-12      -9.060806516486e-15 
   95       3.921714376074e-10       1.063131130645e-13      -3.058012305518e-12       4.588126966309e-16       1.308411731645e-11       1.906397133062e-12      -8.895167998525e-15 
   96       3.968202935266e-10       1.086266778458e-13      -3.157465670146e-12       4.686121848078e-16       1.273028381052e-11       1.864129504588e-12      -8.748130959677e-15 
   97       4.015019916926e-10       1.109264816121e-13      -3.257251961595e-12       4.785217442586e-16       1.238902998291e-11       1.823185879123e-12      -8.618155113530e-15 
   98       4.062163485928e-10       1.132104327671e-13      -3.357306038257e-12       4.885423830452e-16       1.206007168490e-11       1.783550786117e-12      -8.503470176562e-15 
   99       4.109629875709e-10       1.154764173104e-13      -3.457562409392e-12       4.986751704720e-16       1.174299859895e-11       1.745195392821e-12      -8.402068959964e-15 
  100       4.157413308530e-10       1.177222995537e-13      -3.557955283655e-12       5.089212385169e-16       1.143726990722e-11       1.708077028529e-12      -8.311700461457e-15 
  101       4.205505915736e-10       1.199459228369e-13      -3.658418617638e-12       5.192817832633e-16       1.114220996013e-11       1.672138708820e-12      -8.229862957108e-15 
  102       4.253897658010e-10       1.221451102446e-13      -3.758886164400e-12       5.297580663310e-16       1.085700394484e-11       1.637308659798e-12      -8.153797093150e-15 
  103       4.302576245632e-10       1.243176653223e-13      -3.859291522005e-12       5.403514163080e-16       1.058069355382e-11       1.603499842336e-12      -8.080478977799e-15 
  104       4.351529668823e-10       1.264614061265e-13      -3.959565783975e-12       5.510631129525e-16       1.031239376768e-11       1.570630459692e-12      -8.007211671062e-15 
  105       4.400754349809e-10       1.285742710712e-13      -4.059630024643e-12       5.618940189004e-16       1.005198588433e-11       1.538689660086e-12      -7.933505531763e-15 
  106       4.450247948448e-10       1.306542287821e-13      -4.159401884438e-12       5.728449006438e-16       9.799510468657e-12       1.507679863956e-12      -7.859440181645e-15 
  107       4.500006800035e-10       1.326992471081e-13      -4.258797899233e-12       5.839165414596e-16       9.554952719497e-12       1.477596330926e-12      -7.785088461516e-15 
