# dimensionless total [l(l+1)/2pi] C_l's
# for l=2 to 3000, i.e. number of multipoles equal to 2999
#
# -> if you prefer output in CAMB/HealPix/LensPix units/order, set 'format' to 'camb' in input file
# -> if you don't want to see such a header, set 'headers' to 'no' in input file
# -> for CMB lensing (phi), these are C_l^phi-phi for the lensing potential.
#    Remember the conversion factors:
#    C_l^dd (deflection) = l(l+1) C_l^phi-phi
#    C_l^gg (shear/convergence) = 1/4 (l(l+1))^2 C_l^phi-phi
#
# 1:l     2:TT                     3:EE                     4:TE                     5:BB                     6:phiphi                 7:TPhi                   8:Ephi               
    2       1.742762947886e-10       7.642850725349e-15       5.080512824460e-13       0.000000000000e+00       9.460015681236e-09       5.821226992251e-10      -2.716983577660e-12 
    3       1.629241172732e-10       1.193538408662e-14       6.231552303925e-13       0.000000000000e+00       5.865077537410e-09       4.126000987509e-10      -2.299462047731e-12 
    4       1.523567207845e-10       1.275987321709e-14       6.277232962170e-13       0.000000000000e+00       4.085733461994e-09       3.123134059499e-10      -1.743058025137e-12 
    5       1.442500936302e-10       1.069294798399e-14       5.719107112452e-13       0.000000000000e+00       3.050337921269e-09       2.467122257855e-10      -1.206813193860e-12 
    6       1.383963640149e-10       7.406054409072e-15       4.891821245920e-13       0.000000000000e+00       2.382365737983e-09       2.007012826007e-10      -7.438592110634e-13 
    7       1.343169419775e-10       4.421767023463e-15       4.015913254953e-13       0.000000000000e+00       1.920581067441e-09       1.668480055868e-10      -3.777294194358e-13 
    8       1.316613746769e-10       2.474000413898e-15       3.216607113181e-13       0.000000000000e+00       1.585446889180e-09       1.411061476707e-10      -1.142214839900e-13 
    9       1.300490111402e-10       1.544358207093e-15       2.560820675665e-13       0.000000000000e+00       1.333925040985e-09       1.210622766132e-10       5.270879256404e-14 
   10       1.292557188058e-10       1.232668300192e-15       2.076443781934e-13       0.000000000000e+00       1.139946014019e-09       1.051394607977e-10       1.372813008871e-13 
   11       1.290762968097e-10       1.132572860359e-15       1.762604456803e-13       0.000000000000e+00       9.632006513130e-10       9.258071178258e-11       1.580814744406e-13 
   12       1.293603788628e-10       1.025753363512e-15       1.598867807910e-13       0.000000000000e+00       8.414416368844e-10       8.182872162619e-11       1.367576120901e-13 
   13       1.300065108177e-10       8.820846193434e-16       1.553320265986e-13       0.000000000000e+00       7.414812611342e-10       7.286726628271e-11       9.199858583083e-14 
   14       1.309769781639e-10       7.587337672448e-16       1.589720045485e-13       0.000000000000e+00       6.583239605912e-10       6.547438918433e-11       4.020796813152e-14 
   15       1.321711662315e-10       7.032256678042e-16       1.673729057036e-13       0.000000000000e+00       5.883407132338e-10       5.904415384992e-11      -7.131563493094e-15 
   16       1.335305659872e-10       7.151710595171e-16       1.777649563214e-13       0.000000000000e+00       5.288397638851e-10       5.351847392561e-11      -4.244909083619e-14 
   17       1.350639967025e-10       7.618266845790e-16       1.882453774722e-13       0.000000000000e+00       4.778010614924e-10       4.876218678343e-11      -6.265796200511e-14 
   18       1.367423735614e-10       8.102754500794e-16       1.976709883262e-13       0.000000000000e+00       4.335074070114e-10       4.460248747053e-11      -6.835254646261e-14 
   19       1.385588017717e-10       8.583586607601e-16       2.058476739859e-13       0.000000000000e+00       3.952530900609e-10       4.095944813878e-11      -6.227319424106e-14 
   20       1.404522284663e-10       9.158231339110e-16       2.129296686804e-13       0.000000000000e+00       3.615653020301e-10       3.768763732588e-11      -4.905014684437e-14 
   21       1.424286202936e-10       9.992393004647e-16       2.193682727018e-13       0.000000000000e+00       3.319140871848e-10       3.476621462471e-11      -3.275131073245e-14 
   22       1.444791826282e-10       1.126230846051e-15       2.257805242357e-13       0.000000000000e+00       3.055884823713e-10       3.216868478092e-11      -1.769229840843e-14 
   23       1.466047544330e-10       1.296226905588e-15       2.326318768292e-13       0.000000000000e+00       2.822259672948e-10       2.986555188795e-11      -6.268536323166e-15 
   24       1.487847688276e-10       1.501333527246e-15       2.402927938689e-13       0.000000000000e+00       2.612861632399e-10       2.779679410217e-11      -6.451779981654e-17 
   25       1.510201535837e-10       1.736893091654e-15       2.487463949518e-13       0.000000000000e+00       2.425221316450e-10       2.593195403403e-11       9.834944143494e-16 
   26       1.533016746860e-10       1.999060175539e-15       2.577549208373e-13       0.000000000000e+00       2.255935989029e-10       2.423376567304e-11      -2.159151377539e-15 
   27       1.556321353378e-10       2.288299534212e-15       2.668927685887e-13       0.000000000000e+00       2.102975067946e-10       2.269360817896e-11      -7.928981763775e-15 
   28       1.580066154786e-10       2.605845452270e-15       2.756124685947e-13       0.000000000000e+00       1.963703298133e-10       2.129966780686e-11      -1.440478400748e-14 
   29       1.604318269092e-10       2.950409387361e-15       2.834687449272e-13       0.000000000000e+00       1.837406590006e-10       2.004084898925e-11      -2.037630328528e-14 
   30       1.629032979704e-10       3.319285276490e-15       2.899730093090e-13       0.000000000000e+00       1.722723855357e-10       1.889168101154e-11      -2.465889024967e-14 
   31       1.654049498815e-10       3.710095277837e-15       2.946404495705e-13       0.000000000000e+00       1.617310709850e-10       1.781753521120e-11      -2.614573057636e-14 
   32       1.679439423091e-10       4.125399068780e-15       2.973773974838e-13       0.000000000000e+00       1.520622110325e-10       1.681749204324e-11      -2.501394170622e-14 
   33       1.705259219782e-10       4.569888653119e-15       2.982424281374e-13       0.000000000000e+00       1.431975304586e-10       1.589573039532e-11      -2.199187124675e-14 
   34       1.731475900191e-10       5.048468456618e-15       2.973460831501e-13       0.000000000000e+00       1.350130292836e-10       1.505033870260e-11      -1.797553058442e-14 
   35       1.758073871536e-10       5.563453443839e-15       2.948338381344e-13       0.000000000000e+00       1.274665763415e-10       1.427558058551e-11      -1.370504974802e-14 
   36       1.784964198141e-10       6.116419464766e-15       2.909043693783e-13       0.000000000000e+00       1.204972497910e-10       1.355922504118e-11      -9.998633729324e-15 
   37       1.812013383460e-10       6.708751918210e-15       2.857600871523e-13       0.000000000000e+00       1.140139585798e-10       1.288610842028e-11      -7.642058874147e-15 
   38       1.839278818207e-10       7.341007339775e-15       2.794079293731e-13       0.000000000000e+00       1.079998746725e-10       1.225475513216e-11      -6.677469565968e-15 
   39       1.866837813322e-10       8.013318089771e-15       2.717942238551e-13       0.000000000000e+00       1.024359399516e-10       1.166554615286e-11      -6.879644162039e-15 
   40       1.894717134285e-10       8.725539095632e-15       2.628569396050e-13       0.000000000000e+00       9.726911367427e-11       1.111592340322e-11      -7.938614735346e-15 
   41       1.922907254953e-10       9.477464239047e-15       2.525092170753e-13       0.000000000000e+00       9.243083595911e-11       1.060160045323e-11      -9.485676096623e-15 
   42       1.951424682782e-10       1.026960556616e-14       2.405855771465e-13       0.000000000000e+00       8.790677215261e-11       1.012131859623e-11      -1.119626944265e-14 
   43       1.980260132015e-10       1.110263599807e-14       2.268767545250e-13       0.000000000000e+00       8.368478379575e-11       9.673183961859e-12      -1.271031678267e-14 
   44       2.009355848025e-10       1.197717334515e-14       2.111418989998e-13       0.000000000000e+00       7.973399703335e-11       9.253154590945e-12      -1.359917321394e-14 
   45       2.038640169692e-10       1.289377097845e-14       1.931659163697e-13       0.000000000000e+00       7.601580347658e-11       8.856426235872e-12      -1.349093560386e-14 
   46       2.068154002134e-10       1.385289281835e-14       1.729564579118e-13       0.000000000000e+00       7.252429738623e-11       8.482481048366e-12      -1.250013675170e-14 
   47       2.097954600973e-10       1.485492632075e-14       1.506025571294e-13       0.000000000000e+00       6.925539195885e-11       8.131261502738e-12      -1.091994774222e-14 
   48       2.128077714781e-10       1.590018550554e-14       1.262219358783e-13       0.000000000000e+00       6.619462610687e-11       7.801670057312e-12      -9.107648848273e-15 
   49       2.158535390854e-10       1.698890789979e-14       9.996249733328e-14       0.000000000000e+00       6.331639320754e-11       7.491490100313e-12      -7.488208991193e-15 
   50       2.189323830377e-10       1.812128698821e-14       7.196382289213e-14       0.000000000000e+00       6.059164438869e-11       7.198077897846e-12      -6.452956836456e-15 
   51       2.220454558176e-10       1.929758704043e-14       4.222587821193e-14       0.000000000000e+00       5.801525274024e-11       6.920843266702e-12      -6.014864483448e-15 
   52       2.251927920788e-10       2.051805416845e-14       1.070724959540e-14       0.000000000000e+00       5.558474365378e-11       6.659305602262e-12      -6.065881746627e-15 
   53       2.283722096056e-10       2.178288219055e-14      -2.263835472302e-14       0.000000000000e+00       5.329210585900e-11       6.412339970793e-12      -6.472341290330e-15 
   54       2.315791371820e-10       2.309221124543e-14      -5.786249377784e-14       0.000000000000e+00       5.112341897439e-11       6.178134337787e-12      -7.073601224904e-15 
   55       2.348087104462e-10       2.444608810462e-14      -9.501552289956e-14       0.000000000000e+00       4.906309099696e-11       5.954723701491e-12      -7.712754898943e-15 
   56       2.380630634972e-10       2.584433873901e-14      -1.341244067075e-13       0.000000000000e+00       4.710865674353e-11       5.741845863768e-12      -8.340803722640e-15 
   57       2.413455471780e-10       2.728666166767e-14      -1.752100761037e-13       0.000000000000e+00       4.525900328557e-11       5.539471754637e-12      -8.935985510663e-15 
   58       2.446585378474e-10       2.877266067046e-14      -2.182939248098e-13       0.000000000000e+00       4.350989345663e-11       5.347249065141e-12      -9.473868944594e-15 
   59       2.480033536113e-10       3.030184190993e-14      -2.633979312881e-13       0.000000000000e+00       4.185377301091e-11       5.164481952516e-12      -9.927245540340e-15 
   60       2.513801705547e-10       3.187361105319e-14      -3.105447806633e-13       0.000000000000e+00       4.027957778189e-11       4.990110745352e-12      -1.026602161553e-14 
   61       2.547887347716e-10       3.348734990339e-14      -3.597534597076e-13       0.000000000000e+00       3.877580093611e-11       4.823026275327e-12      -1.046694241274e-14 
   62       2.582308747266e-10       3.514267290566e-14      -4.110246105631e-13       0.000000000000e+00       3.734093552398e-11       4.663141232967e-12      -1.054555946035e-14 
   63       2.617084067377e-10       3.683922337143e-14      -4.643520908954e-13       0.000000000000e+00       3.597504433835e-11       4.510524370048e-12      -1.053127957840e-14 
   64       2.652223315809e-10       3.857659870099e-14      -5.197271894472e-13       0.000000000000e+00       3.467661902313e-11       4.365077607491e-12      -1.045836579022e-14 
   65       2.687727759715e-10       4.035435002817e-14      -5.771386043235e-13       0.000000000000e+00       3.344249067220e-11       4.226526357977e-12      -1.036614125670e-14 
   66       2.723589340464e-10       4.217198186495e-14      -6.365724212764e-13       0.000000000000e+00       3.226774042846e-11       4.094409848558e-12      -1.029919321059e-14 
   67       2.759790088452e-10       4.402895174613e-14      -6.980120919901e-13       0.000000000000e+00       3.114561008276e-11       3.968071443268e-12      -1.030757689073e-14 
   68       2.796311340498e-10       4.592457019807e-14      -7.614355757006e-13       0.000000000000e+00       3.006930381300e-11       3.846841204397e-12      -1.043392878271e-14 
   69       2.833164868869e-10       4.785767790250e-14      -8.268061400354e-13       0.000000000000e+00       2.903801717757e-11       3.730648163705e-12      -1.067131830895e-14 
   70       2.870367037548e-10       4.982690217868e-14      -8.940796486073e-13       0.000000000000e+00       2.805197476380e-11       3.619515298621e-12      -1.099718289817e-14 
   71       2.907929229265e-10       5.183074801885e-14      -9.632071401805e-13       0.000000000000e+00       2.711060683877e-11       3.513373595105e-12      -1.138553451215e-14 
   72       2.945857511029e-10       5.386759518362e-14      -1.034134734407e-12       0.000000000000e+00       2.621250831507e-11       3.412057286855e-12      -1.180682877971e-14 
   73       2.984152299641e-10       5.593569529734e-14      -1.106803537561e-12       0.000000000000e+00       2.535539771651e-11       3.315299094505e-12      -1.222783413055e-14 
   74       3.022808027223e-10       5.803316894353e-14      -1.181149548278e-12       0.000000000000e+00       2.453607614386e-11       3.222725464831e-12      -1.261150092927e-14 
   75       3.061812806737e-10       6.015800276023e-14      -1.257103563286e-12       0.000000000000e+00       2.375038624058e-11       3.133851809949e-12      -1.291683060924e-14 
   76       3.101154740687e-10       6.230821450535e-14      -1.334601228115e-12       0.000000000000e+00       2.299424223554e-11       3.048203240850e-12      -1.310822380805e-14 
   77       3.140842914739e-10       6.448238942405e-14      -1.413615513509e-12       0.000000000000e+00       2.226702762970e-11       2.965712709455e-12      -1.318578208546e-14 
   78       3.180889642493e-10       6.667923686784e-14      -1.494130017500e-12       0.000000000000e+00       2.156874542155e-11       2.886387157589e-12      -1.316031978486e-14 
   79       3.221303966888e-10       6.889743153272e-14      -1.576129457752e-12       0.000000000000e+00       2.089898323356e-11       2.810186311512e-12      -1.304443771643e-14 
   80       3.262091461946e-10       7.113561399894e-14      -1.659599785323e-12       0.000000000000e+00       2.025689424112e-11       2.737020494484e-12      -1.285258666560e-14 
   81       3.303254034514e-10       7.339239127070e-14      -1.744528298433e-12       0.000000000000e+00       1.964117810163e-11       2.666748439326e-12      -1.260113090159e-14 
   82       3.344789726019e-10       7.566633731596e-14      -1.830903756236e-12       0.000000000000e+00       1.905006188354e-11       2.599175100990e-12      -1.230841168599e-14 
   83       3.386692514206e-10       7.795599360614e-14      -1.918716492578e-12       0.000000000000e+00       1.848128099535e-11       2.534049469122e-12      -1.199481078121e-14 
   84       3.428955719517e-10       8.025980391876e-14      -2.007947501210e-12       0.000000000000e+00       1.793262831622e-11       2.471125314549e-12      -1.167911128785e-14 
   85       3.471583307316e-10       8.257590514442e-14      -2.098533363180e-12       0.000000000000e+00       1.740374795864e-11       2.410359791044e-12      -1.136674786886e-14 
   86       3.514580104554e-10       8.490230262840e-14      -2.190395686697e-12       0.000000000000e+00       1.689460529055e-11       2.351743900050e-12      -1.105971604459e-14 
   87       3.557948226095e-10       8.723693226763e-14      -2.283451548199e-12       0.000000000000e+00       1.640493579215e-11       2.295241371008e-12      -1.076010293655e-14 
   88       3.601686937036e-10       8.957765994560e-14      -2.377613420772e-12       0.000000000000e+00       1.593423553456e-11       2.240787531627e-12      -1.047008854618e-14 
   89       3.645792515043e-10       9.192228096730e-14      -2.472789102558e-12       0.000000000000e+00       1.548175165844e-11       2.188288178169e-12      -1.019194703365e-14 
   90       3.690258112674e-10       9.426851949412e-14      -2.568881645170e-12       0.000000000000e+00       1.504647285262e-11       2.137618445721e-12      -9.928047996558e-15 
   91       3.735073619709e-10       9.661402797880e-14      -2.665789282102e-12       0.000000000000e+00       1.462711983278e-11       2.088621678474e-12      -9.680857748729e-15 
   92       3.780225525482e-10       9.895638660033e-14      -2.763405357146e-12       0.000000000000e+00       1.422213582004e-11       2.041108300004e-12      -9.452940598968e-15 
   93       3.825701005171e-10       1.012931953276e-13      -2.861626982246e-12       0.000000000000e+00       1.383005510290e-11       1.994902324802e-12      -9.246363711051e-15 
   94       3.871501180740e-10       1.036223671762e-13      -2.960382656083e-12       0.000000000000e+00       1.345069281207e-11       1.949991348657e-12      -9.060806516486e-15 
   95       3.917629609185e-10       1.059418782183e-13      -3.059608686299e-12       0.000000000000e+00       1.308411731645e-11       1.906397133062e-12      -8.895167998525e-15 
   96       3.964088157655e-10       1.082496795802e-13      -3.159240877761e-12       0.000000000000e+00       1.273028381052e-11       1.864129504588e-12      -8.748130959677e-15 
   97       4.010876923757e-10       1.105436981490e-13      -3.259214580801e-12       0.000000000000e+00       1.238902998291e-11       1.823185879123e-12      -8.618155113530e-15 
   98       4.057994155873e-10       1.128218372791e-13      -3.359464739458e-12       0.000000000000e+00       1.206007168490e-11       1.783550786117e-12      -8.503470176562e-15 
   99       4.105436173463e-10       1.150819774987e-13      -3.459925939714e-12       0.000000000000e+00       1.174299859895e-11       1.745195392821e-12      -8.402068959964e-15 
  100       4.153197287379e-10       1.173219772159e-13      -3.560532457740e-12       0.000000000000e+00       1.143726990722e-11       1.708077028529e-12      -8.311700461457e-15 
  101       4.201269720176e-10       1.195396734253e-13      -3.661218308132e-12       0.000000000000e+00       1.114220996013e-11       1.672138708820e-12      -8.229862957108e-15 
  102       4.249643526419e-10       1.217328824146e-13      -3.761917292156e-12       0.000000000000e+00       1.085700394484e-11       1.637308659798e-12      -8.153797093150e-15 
  103       4.298306512996e-10       1.238994004707e-13      -3.862563045982e-12       0.000000000000e+00       1.058069355382e-11       1.603499842336e-12      -8.080478977799e-15 
  104       4.347246762183e-10       1.260370379363e-13      -3.963086700273e-12       0.000000000000e+00       1.031239376768e-11       1.570630459692e-12      -8.007211671062e-15 
  105       4.396460760670e-10       1.281437250963e-13      -4.063409394960e-12       0.000000000000e+00       1.005198588433e-11       1.538689660086e-12      -7.933505531763e-15 
  106       4.445946225194e-10       1.302174219787e-13      -4.163448838547e-12       0.000000000000e+00       9.799510468657e-12       1.507679863956e-12      -7.859440181645e-15 
  107       4.495699547371e-10       1.322560873417e-13      -4.263121628204e-12       0.000000000000e+00       9.554952719497e-12       1.477596330926e-12      -7.785088461516e-15 
