# dimensionless total [l(l+1)/2pi] C_l's
# for l=2 to 3000, i.e. number of multipoles equal to 2999
#
# -> if you prefer output in CAMB/HealPix/LensPix units/order, set 'format' to 'camb' in input file
# -> if you don't want to see such a header, set 'headers' to 'no' in input file
# -> for CMB lensing (phi), these are C_l^phi-phi for the lensing potential.
#    Remember the conversion factors:
#    C_l^dd (deflection) = l(l+1) C_l^phi-phi
#    C_l^gg (shear/convergence) = 1/4 (l(l+1))^2 C_l^phi-phi
#
# 1:l     2:TT                     3:EE                     4:TE                     5:BB                     6:phiphi                 7:TPhi                   8:Ephi               
    2       3.815980519892e-10       2.124627263813e-14       7.121628620776e-13       0.000000000000e+00       4.509423287050e-09       9.667914790453e-10      -3.446180330424e-12 
    3       3.012637555943e-10       1.389237158347e-14       8.573169852002e-13       0.000000000000e+00       2.682426302573e-09       6.143244405961e-10      -1.197496000096e-12 
    4       2.504773050278e-10       6.420321930211e-15       7.010798813538e-13       0.000000000000e+00       1.799552338523e-09       4.265981935795e-10       1.252352380975e-13 
    5       2.185595922656e-10       3.217524265841e-15       4.858856341321e-13       0.000000000000e+00       1.295743341121e-09       3.142360113887e-10       5.660212194159e-13 
    6       1.983077676987e-10       1.960517897451e-15       3.212893785112e-13       0.000000000000e+00       9.768220349975e-10       2.414516945100e-10       5.205942390807e-13 
    7       1.853707876445e-10       1.200322433224e-15       2.271351346328e-13       0.000000000000e+00       7.611169153825e-10       1.914297013137e-10       3.309291850429e-13 
    8       1.772915880901e-10       7.061644974285e-16       1.796765065770e-13       0.000000000000e+00       6.081246946926e-10       1.554645021783e-10       1.764588063959e-13 
    9       1.726566852432e-10       4.359160052413e-16       1.510746644207e-13       0.000000000000e+00       4.956070186494e-10       1.287560084744e-10       9.925453482868e-14 
   10       1.705179374191e-10       3.021022858330e-16       1.269351803423e-13       0.000000000000e+00       4.104497101365e-10       1.084232429353e-10       7.420025256897e-14 
   11       1.702257069236e-10       2.389168658569e-16       1.061427880661e-13       0.000000000000e+00       3.437768960526e-10       9.350196322689e-11       6.756788403096e-14 
   12       1.713008478782e-10       2.146806653749e-16       9.290341901650e-14       0.000000000000e+00       2.919514374238e-10       8.073063672144e-11       5.987673067348e-14 
   13       1.734940046668e-10       2.136050751185e-16       8.916044561464e-14       0.000000000000e+00       2.503234267175e-10       7.039528070768e-11       4.957442147448e-14 
   14       1.765177302172e-10       2.249957458375e-16       9.218433300832e-14       0.000000000000e+00       2.164245980664e-10       6.196856876271e-11       4.022544876102e-14 
   15       1.803175721919e-10       2.419295113227e-16       9.748990912436e-14       0.000000000000e+00       1.884915303858e-10       5.500951167324e-11       3.412686065746e-14 
   16       1.847360413066e-10       2.624834530031e-16       1.021070419344e-13       0.000000000000e+00       1.652332220243e-10       4.916382564414e-11       3.078764508121e-14 
   17       1.896147266454e-10       2.887963193892e-16       1.055509672426e-13       0.000000000000e+00       1.456875243272e-10       4.420354639261e-11       2.862134435243e-14 
   18       1.949606316808e-10       3.243855452743e-16       1.088958960831e-13       0.000000000000e+00       1.290607557533e-10       3.996465882703e-11       2.658057094573e-14 
   19       2.007515155179e-10       3.712106016479e-16       1.126414221244e-13       0.000000000000e+00       1.149866836185e-10       3.635470774200e-11       2.467716740983e-14 
   20       2.068510904162e-10       4.302048258820e-16       1.168500258088e-13       0.000000000000e+00       1.028285741004e-10       3.320090604635e-11       2.316975632847e-14 
   21       2.132324555897e-10       5.006743753661e-16       1.207299530690e-13       0.000000000000e+00       9.233155219161e-11       3.044456151331e-11       2.211580920847e-14 
   22       2.198617467946e-10       5.809512745610e-16       1.232303805323e-13       0.000000000000e+00       8.318339688547e-11       2.801751718471e-11       2.142882933041e-14 
   23       2.267431514329e-10       6.697638402864e-16       1.244010532570e-13       0.000000000000e+00       7.521542252012e-11       2.588463890777e-11       2.082304560216e-14 
   24       2.338567492110e-10       7.660385124161e-16       1.247210258466e-13       0.000000000000e+00       6.820059299354e-11       2.399135907000e-11       1.992949783228e-14 
   25       2.411614477632e-10       8.704680705532e-16       1.246178646894e-13       0.000000000000e+00       6.202685255092e-11       2.229925351693e-11       1.863414100017e-14 
   26       2.485949818903e-10       9.844798140267e-16       1.244412970873e-13       0.000000000000e+00       5.655347020899e-11       2.076090207122e-11       1.691461036293e-14 
   27       2.561689039907e-10       1.109668569455e-15       1.239660227760e-13       0.000000000000e+00       5.169328917075e-11       1.936938229948e-11       1.481974314202e-14 
   28       2.639015701721e-10       1.247660139019e-15       1.227967695669e-13       0.000000000000e+00       4.734096242498e-11       1.811907097045e-11       1.243245695291e-14 
   29       2.717883396440e-10       1.399274446611e-15       1.208714030629e-13       0.000000000000e+00       4.346089339601e-11       1.700031181679e-11       9.831213828342e-15 
   30       2.797973595452e-10       1.565041643888e-15       1.182369085814e-13       0.000000000000e+00       3.999764218838e-11       1.598874387372e-11       7.107513242117e-15 
   31       2.878830257346e-10       1.745421474538e-15       1.149332401865e-13       0.000000000000e+00       3.686367753953e-11       1.505126101927e-11       4.369259809720e-15 
   32       2.960433906325e-10       1.940830873587e-15       1.109111587253e-13       0.000000000000e+00       3.403411823467e-11       1.418483432294e-11       1.725542798774e-15 
   33       3.042809450764e-10       2.151612836271e-15       1.060813765110e-13       0.000000000000e+00       3.148129231525e-11       1.339054551943e-11      -7.022580968337e-16 
   34       3.125899772835e-10       2.378122699706e-15       1.003344924094e-13       0.000000000000e+00       2.916013760256e-11       1.266411023091e-11      -2.798552430185e-15 
   35       3.209695954392e-10       2.621080192304e-15       9.354311524596e-14       0.000000000000e+00       2.705290419602e-11       1.200032179749e-11      -4.532826377945e-15 
   36       3.294131291545e-10       2.881339905877e-15       8.555739851116e-14       0.000000000000e+00       2.513670279464e-11       1.138910998987e-11      -5.909569039996e-15 
   37       3.379084786758e-10       3.159777438191e-15       7.623217348640e-14       0.000000000000e+00       2.337962633741e-11       1.081783106556e-11      -6.946556500402e-15 
   38       3.464550447115e-10       3.457209477778e-15       6.552814038546e-14       0.000000000000e+00       2.177355089342e-11       1.028514789739e-11      -7.667080619008e-15 
   39       3.550509041114e-10       3.774448743851e-15       5.344384574380e-14       0.000000000000e+00       2.031025683172e-11       9.791128076928e-12      -8.107353362692e-15 
   40       3.636873433727e-10       4.112325578241e-15       3.998950423814e-14       0.000000000000e+00       1.897156617239e-11       9.333223013159e-12      -8.320158416747e-15 
   41       3.723526985151e-10       4.471565201645e-15       2.518383211703e-14       0.000000000000e+00       1.773492746213e-11       8.907280262572e-12      -8.367666390199e-15 
   42       3.810471335207e-10       4.852371214346e-15       9.041586455120e-15       0.000000000000e+00       1.659438694232e-11       8.511549858159e-12      -8.294114742078e-15 
   43       3.897714436687e-10       5.254706659253e-15      -8.416825310989e-15       0.000000000000e+00       1.554502287963e-11       8.143580981958e-12      -8.146301657509e-15 
   44       3.985224921682e-10       5.678396947468e-15      -2.716137196547e-14       0.000000000000e+00       1.457671035970e-11       7.798934240469e-12      -7.981869608818e-15 
   45       4.072951748388e-10       6.123307072138e-15      -4.716949621959e-14       0.000000000000e+00       1.367725956081e-11       7.472579765625e-12      -7.855788283646e-15 
   46       4.160899962779e-10       6.589956070357e-15      -6.848454900132e-14       0.000000000000e+00       1.284389726520e-11       7.163948956154e-12      -7.773461207993e-15 
   47       4.249070500254e-10       7.079072082153e-15      -9.117406984935e-14       0.000000000000e+00       1.207453364324e-11       6.873133858898e-12      -7.724699405377e-15 
   48       4.337435617232e-10       7.591425038679e-15      -1.153143138333e-13       0.000000000000e+00       1.136432654851e-11       6.599406416968e-12      -7.696502881972e-15 
   49       4.425936096616e-10       8.127829012698e-15      -1.409908180178e-13       0.000000000000e+00       1.070548318090e-11       6.341155414278e-12      -7.672891338743e-15 
   50       4.514503823582e-10       8.689054797617e-15      -1.682821229286e-13       0.000000000000e+00       1.008936856919e-11       6.096430954351e-12      -7.638878251071e-15 
   51       4.603143220572e-10       9.275534216755e-15      -1.972044136244e-13       0.000000000000e+00       9.513965875086e-12       5.864898418603e-12      -7.594057560956e-15 
   52       4.691867086369e-10       9.887579615125e-15      -2.277528312374e-13       0.000000000000e+00       8.978098266745e-12       5.646305892718e-12      -7.542412314376e-15 
   53       4.780671595052e-10       1.052546478634e-14      -2.599167837649e-13       0.000000000000e+00       8.479211436220e-12       5.439889340033e-12      -7.488518708223e-15 
   54       4.869534695346e-10       1.118942309857e-14      -2.936797198279e-13       0.000000000000e+00       8.013283818678e-12       5.244338135917e-12      -7.437571784441e-15 
   55       4.958428437938e-10       1.187966737099e-14      -3.290264102930e-13       0.000000000000e+00       7.575909371109e-12       5.058190399187e-12      -7.394078763173e-15 
   56       5.047363210479e-10       1.259645957877e-14      -3.659674297296e-13       0.000000000000e+00       7.166066578166e-12       4.881212949421e-12      -7.357500058016e-15 
   57       5.136351687853e-10       1.334005518176e-14      -4.045203603924e-13       0.000000000000e+00       6.783128490235e-12       4.713303791434e-12      -7.325570400665e-15 
   58       5.225394832028e-10       1.411068188680e-14      -4.447028820299e-13       0.000000000000e+00       6.425729060194e-12       4.554075018695e-12      -7.295510682399e-15 
   59       5.314480834063e-10       1.490853862112e-14      -4.865328381577e-13       0.000000000000e+00       6.091719046784e-12       4.402835093043e-12      -7.264001738039e-15 
   60       5.403584056111e-10       1.573379450567e-14      -5.300283023300e-13       0.000000000000e+00       5.778121917984e-12       4.258571124425e-12      -7.227158129917e-15 
   61       5.492676455512e-10       1.658659421382e-14      -5.752053138263e-13       0.000000000000e+00       5.481881377095e-12       4.120236192131e-12      -7.181618889214e-15 
   62       5.581767247080e-10       1.746707777541e-14      -6.220703408638e-13       0.000000000000e+00       5.202399772993e-12       3.987726759960e-12      -7.128165144472e-15 
   63       5.670870306523e-10       1.837536341639e-14      -6.706262355741e-13       0.000000000000e+00       4.939493806084e-12       3.861094205890e-12      -7.068871683280e-15 
   64       5.759991825099e-10       1.931154075804e-14      -7.208744077874e-13       0.000000000000e+00       4.692634580370e-12       3.740251257811e-12      -7.006070690173e-15 
   65       5.849129647663e-10       2.027566999297e-14      -7.728148173560e-13       0.000000000000e+00       4.460928624408e-12       3.624963951987e-12      -6.942360970810e-15 
   66       5.938272610722e-10       2.126778106108e-14      -8.264459664802e-13       0.000000000000e+00       4.243098912280e-12       3.514843591523e-12      -6.880617176151e-15 
   67       6.027399880483e-10       2.228787282555e-14      -8.817648920321e-13       0.000000000000e+00       4.037465884552e-12       3.409338704828e-12      -6.823999026640e-15 
   68       6.116490287007e-10       2.333592253841e-14      -9.387678367387e-13       0.000000000000e+00       3.842353844407e-12       3.307886844570e-12      -6.775140958408e-15 
   69       6.205554002593e-10       2.441191830667e-14      -9.974524378128e-13       0.000000000000e+00       3.657448192372e-12       3.210423677150e-12      -6.733509771683e-15 
   70       6.294606122605e-10       2.551583175462e-14      -1.057815970046e-12       0.000000000000e+00       3.482680371892e-12       3.116963075954e-12      -6.697525683105e-15 
   71       6.383656838301e-10       2.664760776539e-14      -1.119854715700e-12       0.000000000000e+00       3.317818872403e-12       3.027442525301e-12      -6.665323004377e-15 
   72       6.472711030539e-10       2.780716392009e-14      -1.183563974198e-12       0.000000000000e+00       3.162461129456e-12       2.941719166896e-12      -6.634738405373e-15 
   73       6.561767863477e-10       2.899438993699e-14      -1.248938071806e-12       0.000000000000e+00       3.016025424841e-12       2.859565846290e-12      -6.603299177244e-15 
   74       6.650820378284e-10       3.020914711059e-14      -1.315970371325e-12       0.000000000000e+00       2.877742786714e-12       2.780667159334e-12      -6.568211495519e-15 
   75       6.739855086845e-10       3.145126775078e-14      -1.384653281772e-12       0.000000000000e+00       2.746648889717e-12       2.704615498637e-12      -6.526348683211e-15 
   76       6.828858503553e-10       3.272055740231e-14      -1.454977988310e-12       0.000000000000e+00       2.621801915747e-12       2.631017683287e-12      -6.475126086809e-15 
   77       6.917839013934e-10       3.401680321028e-14      -1.526933563742e-12       0.000000000000e+00       2.502999906654e-12       2.559846035809e-12      -6.415335833376e-15 
   78       7.006808274244e-10       3.533976606823e-14      -1.600507711842e-12       0.000000000000e+00       2.390180116188e-12       2.491144440433e-12      -6.348810083177e-15 
   79       7.095774367409e-10       3.668917747746e-14      -1.675687036622e-12       0.000000000000e+00       2.283201243974e-12       2.424921780676e-12      -6.277586615414e-15 
   80       7.184741538997e-10       3.806473904313e-14      -1.752457046289e-12       0.000000000000e+00       2.181839969149e-12       2.361150253395e-12      -6.203915272045e-15 
   81       7.273709933196e-10       3.946612197045e-14      -1.830802157193e-12       0.000000000000e+00       2.085787483987e-12       2.299763682844e-12      -6.130264401606e-15 
   82       7.362675328794e-10       4.089296656080e-14      -1.910705697775e-12       0.000000000000e+00       1.994646027532e-12       2.240655834728e-12      -6.059327303029e-15 
   83       7.451628875151e-10       4.234488170787e-14      -1.992149912519e-12       0.000000000000e+00       1.907925419232e-12       2.183678730263e-12      -5.994028669464e-15 
   84       7.540561917841e-10       4.382145178337e-14      -2.075115883695e-12       0.000000000000e+00       1.825150200877e-12       2.128680898184e-12      -5.936852951953e-15 
   85       7.629481973075e-10       4.532225970932e-14      -2.159583273023e-12       0.000000000000e+00       1.746209063431e-12       2.075633109912e-12      -5.887687404704e-15 
   86       7.718398929738e-10       4.684686680460e-14      -2.245530544228e-12       0.000000000000e+00       1.671057261686e-12       2.024520494436e-12      -5.845631614286e-15 
   87       7.807320019330e-10       4.839480536150e-14      -2.332935043965e-12       0.000000000000e+00       1.599609572660e-12       1.975303453882e-12      -5.809638907568e-15 
   88       7.896249637487e-10       4.996557826599e-14      -2.421773004392e-12       0.000000000000e+00       1.531738688183e-12       1.927916648797e-12      -5.778511399239e-15 
   89       7.985189165491e-10       5.155865861809e-14      -2.512019545734e-12       0.000000000000e+00       1.467273607500e-12       1.882267983429e-12      -5.750895039321e-15 
   90       8.074136791796e-10       5.317348935223e-14      -2.603648678856e-12       0.000000000000e+00       1.405998029858e-12       1.838237591010e-12      -5.725274660682e-15 
   91       8.163087333537e-10       5.480948285755e-14      -2.696633307828e-12       0.000000000000e+00       1.347648747103e-12       1.795676819036e-12      -5.699969026554e-15 
   92       8.252032058054e-10       5.646602059824e-14      -2.790945232494e-12       0.000000000000e+00       1.291914036272e-12       1.754407214552e-12      -5.673125878048e-15 
   93       8.340963239902e-10       5.814246377326e-14      -2.886555308491e-12       0.000000000000e+00       1.238500732034e-12       1.714263002897e-12      -5.643119274553e-15 
   94       8.429889003565e-10       5.983818795386e-14      -2.983433949247e-12       0.000000000000e+00       1.187350474694e-12       1.675228036135e-12      -5.609820731591e-15 
   95       8.518820393484e-10       6.155255297782e-14      -3.081550704586e-12       0.000000000000e+00       1.138453165306e-12       1.637317661404e-12      -5.573510995107e-15 
   96       8.607766725498e-10       6.328489214920e-14      -3.180874114667e-12       0.000000000000e+00       1.091780528010e-12       1.600536650596e-12      -5.534495345113e-15 
   97       8.696735473372e-10       6.503451201024e-14      -3.281371714718e-12       0.000000000000e+00       1.047285445388e-12       1.564878782668e-12      -5.493104165413e-15 
   98       8.785732155314e-10       6.680069211320e-14      -3.383010039762e-12       0.000000000000e+00       1.004901293809e-12       1.530326425948e-12      -5.449693513327e-15 
   99       8.874760220496e-10       6.858268479229e-14      -3.485754629351e-12       0.000000000000e+00       9.645412787849e-13       1.496850120450e-12      -5.404645689413e-15 
  100       8.963820935577e-10       7.037971493548e-14      -3.589570032291e-12       0.000000000000e+00       9.260977703167e-13       1.464408160177e-12      -5.358369807192e-15 
  101       9.052913271220e-10       7.219097975642e-14      -3.694419811376e-12       0.000000000000e+00       8.894416382495e-13       1.432946175435e-12      -5.311302362870e-15 
  102       9.142033788615e-10       7.401564856629e-14      -3.800266548114e-12       0.000000000000e+00       8.544215876206e-13       1.402396715141e-12      -5.263907805064e-15 
  103       9.231176525997e-10       7.585286254571e-14      -3.907071847460e-12       0.000000000000e+00       8.208634940114e-13       1.372678829134e-12      -5.216679104522e-15 
  104       9.320335896407e-10       7.770174971425e-14      -4.014796463068e-12       0.000000000000e+00       7.886063744749e-13       1.343717080543e-12      -5.170036287991e-15 
  105       9.409516071181e-10       7.956147263353e-14      -4.123400682141e-12       0.000000000000e+00       7.576172658615e-13       1.315502407520e-12      -5.124005202540e-15 
  106       9.498722658374e-10       8.143118675285e-14      -4.232844001629e-12       0.000000000000e+00       7.278906980271e-13       1.288038742621e-12      -5.078496217093e-15 
  107       9.587959725299e-10       8.331002572655e-14      -4.343085018330e-12       0.000000000000e+00       6.994131851271e-13       1.261324115205e-12      -5.033401838346e-15 
