# dimensionless total lensed [l(l+1)/2pi] C_l's
# for l=2 to 2500, i.e. number of multipoles equal to 2499
#
# -> if you prefer output in CAMB/HealPix/LensPix units/order, set 'format' to 'camb' in input file
# -> if you don't want to see such a header, set 'headers' to 'no' in input file
# -> for CMB lensing (phi), these are C_l^phi-phi for the lensing potential.
#    Remember the conversion factors:
#    C_l^dd (deflection) = l(l+1) C_l^phi-phi
#    C_l^gg (shear/convergence) = 1/4 (l(l+1))^2 C_l^phi-phi
#
# 1:l     2:TT                     3:EE                     4:TE                     5:BB                     6:phiphi                 7:TPhi                   8:Ephi               
    2       1.742769010012e-10       7.643136558684e-15       5.080513074316e-13       2.854545708973e-19       9.460015892926e-09       5.821227113364e-10      -2.716983661547e-12 
    3       1.629253196145e-10       1.193595581695e-14       6.231552400919e-13       5.711297240384e-19       5.865077679321e-09       4.126001096160e-10      -2.299462119737e-12 
    4       1.523587137413e-10       1.276082624748e-14       6.277232564114e-13       9.523659454343e-19       4.085733579863e-09       3.123134155132e-10      -1.743058081325e-12 
    5       1.442530684250e-10       1.069437800870e-14       5.719105722578e-13       1.429437822009e-18       3.050338024268e-09       2.467122345154e-10      -1.206813235419e-12 
    6       1.384005079253e-10       7.408057522996e-15       4.891818166777e-13       2.002672419367e-18       2.382365825866e-09       2.007012901906e-10      -7.438592406238e-13 
    7       1.343224375550e-10       4.424439771811e-15       4.015907546642e-13       2.672439434413e-18       1.920581141564e-09       1.668480116728e-10      -3.777294392482e-13 
    8       1.316683996598e-10       2.477439797721e-15       3.216597566582e-13       3.439140260566e-18       1.585446952175e-09       1.411061529234e-10      -1.142214953241e-13 
    9       1.300577373896e-10       1.548661672784e-15       2.560805795789e-13       4.303196386496e-18       1.333925095076e-09       1.210622819030e-10       5.270878891530e-14 
   10       1.292663126892e-10       1.237933727804e-15       2.076421757614e-13       5.265037572736e-18       1.139946061007e-09       1.051394657786e-10       1.372813038063e-13 
   11       1.290889184668e-10       1.138898551961e-15       1.762573139143e-13       6.325090256167e-18       9.632006907320e-10       9.258071551880e-11       1.580814819374e-13 
   12       1.293751829080e-10       1.033238030582e-15       1.598824710144e-13       7.483766619739e-18       8.414416716850e-10       8.182872447511e-11       1.367576219375e-13 
   13       1.300236459553e-10       8.908273675279e-16       1.553262564258e-13       8.741454734679e-18       7.414812920565e-10       7.286726928160e-11       9.199859564932e-14 
   14       1.309965871475e-10       7.688340721607e-16       1.589644581232e-13       1.009851013586e-17       6.583239882290e-10       6.547439230725e-11       4.020797600998e-14 
   15       1.321933861998e-10       7.147833346514e-16       1.673632343872e-13       1.155524913008e-17       5.883407380653e-10       5.904415616809e-11      -7.131558681973e-15 
   16       1.335555289748e-10       7.282861658996e-16       1.777527800496e-13       1.311194406391e-17       5.288397863026e-10       5.351847547999e-11      -4.244908935719e-14 
   17       1.350918308565e-10       7.765995131527e-16       1.882302855000e-13       1.476882069611e-17       4.778010818197e-10       4.876218865570e-11      -6.265796342456e-14 
   18       1.367732018403e-10       8.268064175533e-16       1.976525408829e-13       1.652605670948e-17       4.335074255114e-10       4.460248954206e-11      -6.835254991028e-14 
   19       1.385927431794e-10       8.767482517718e-16       2.058254036846e-13       1.838378848493e-17       3.952531069737e-10       4.095944989270e-11      -6.227319871937e-14 
   20       1.404893990156e-10       9.361718247259e-16       2.129030820811e-13       2.034210359385e-17       3.615653175396e-10       3.768763841687e-11      -4.905015140336e-14 
   21       1.424691330127e-10       1.021647494345e-15       2.193368507341e-13       2.240106129042e-17       3.319141014560e-10       3.476621532638e-11      -3.275131464581e-14 
   22       1.445231478537e-10       1.150798797271e-15       2.257437234515e-13       2.456068364888e-17       3.055884955412e-10       3.216868595550e-11      -1.769230130027e-14 
   23       1.466522799497e-10       1.323054658106e-15       2.325891305973e-13       2.682098022737e-17       2.822259794863e-10       2.986555351198e-11      -6.268538091982e-15 
   24       1.488359602571e-10       1.530520843733e-15       2.402435138349e-13       2.918193914694e-17       2.612861745536e-10       2.779679502367e-11      -6.451861287016e-17 
   25       1.510751150167e-10       1.768539406245e-15       2.486899718921e-13       3.164355614471e-17       2.425221421715e-10       2.593195412113e-11       9.834942486761e-16 
   26       1.533605090432e-10       2.033264533924e-15       2.576907259044e-13       3.420582372281e-17       2.255936087186e-10       2.423376625907e-11      -2.159151282706e-15 
   27       1.556949438603e-10       2.325160557737e-15       2.668201539849e-13       3.686875669591e-17       2.102975159673e-10       2.269360978694e-11      -7.928981740736e-15 
   28       1.580734976602e-10       2.645461292505e-15       2.755307687910e-13       3.963238513412e-17       1.963703384000e-10       2.129966954752e-11      -1.440478427380e-14 
   29       1.605028804629e-10       2.992877715150e-15       2.833772779201e-13       4.249678446601e-17       1.837406670552e-10       2.004085003805e-11      -2.037630396032e-14 
   30       1.629786188876e-10       3.364703244525e-15       2.898710781359e-13       4.546205767668e-17       1.722723931065e-10       1.889168117885e-11      -2.465889133594e-14 
   31       1.654846323881e-10       3.758559483581e-15       2.945273443499e-13       4.852833500925e-17       1.617310781106e-10       1.781753495953e-11      -2.614573195535e-14 
   32       1.680280783379e-10       4.177005557497e-15       2.972523988287e-13       5.169579535973e-17       1.520622177493e-10       1.681749186588e-11      -2.501394323943e-14 
   33       1.706146009091e-10       4.624732897271e-15       2.981048099145e-13       5.496465917529e-17       1.431975368000e-10       1.589573059340e-11      -2.199187281103e-14 
   34       1.732408985237e-10       5.106645328478e-15       2.971951157055e-13       5.833518294235e-17       1.350130352779e-10       1.505033935910e-11      -1.797553207986e-14 
   35       1.759054090518e-10       5.625057196596e-15       2.946687939081e-13       6.180764580604e-17       1.274665820154e-10       1.427558166843e-11      -1.370505110208e-14 
   36       1.785992358828e-10       6.181543710310e-15       2.907245272700e-13       6.538236422476e-17       1.204972551685e-10       1.355922641897e-11      -9.998634904575e-15 
   37       1.813090261034e-10       6.777489590755e-15       2.855647377825e-13       6.905967951194e-17       1.140139636812e-10       1.288610987116e-11      -7.642059871718e-15 
   38       1.840405153137e-10       7.413450613927e-15       2.791963849092e-13       7.283989135491e-17       1.079998795174e-10       1.225475645345e-11      -6.677470408379e-15 
   39       1.868014308825e-10       8.089558330132e-15       2.715658252346e-13       7.672330624173e-17       1.024359445588e-10       1.166554720390e-11      -6.879644890390e-15 
   40       1.895944453488e-10       8.805666818881e-15       2.626110629291e-13       8.071025747260e-17       9.726911806038e-11       1.111592412305e-11      -7.938615412197e-15 
   41       1.924186019901e-10       9.561569043623e-15       2.522452814485e-13       8.480107417102e-17       9.243084013784e-11       1.060160086212e-11      -9.485676800995e-15 
   42       1.952755480282e-10       1.035777595160e-14       2.403030566816e-13       8.899597205393e-17       8.790677613710e-11       1.012131873936e-11      -1.119627023792e-14 
   43       1.981643514484e-10       1.119495925912e-14       2.265751880571e-13       9.329512999556e-17       8.368478759864e-11       9.673183894025e-12      -1.271031770299e-14 
   44       2.010792332369e-10       1.207373549335e-14       2.108208991590e-13       9.769871914486e-17       7.973400066602e-11       9.253154377033e-12      -1.359917425756e-14 
   45       2.040130237897e-10       1.299465661894e-14       1.928251787389e-13       1.022068735518e-16       7.601580694878e-11       8.856425947498e-12      -1.349093673448e-14 
   46       2.069698107811e-10       1.395818488133e-14       1.725957695519e-13       1.068195928661e-16       7.252430070750e-11       8.482480747793e-12      -1.250013792778e-14 
   47       2.099553171586e-10       1.496470589134e-14       1.502218062090e-13       1.115368096168e-16       6.925539513856e-11       8.131261235711e-12      -1.091994892604e-14 
   48       2.129731152250e-10       1.601453168809e-14       1.258211219510e-13       1.163584133614e-16       6.619462915381e-11       7.801669849142e-12      -9.107650007303e-15 
   49       2.160244072173e-10       1.710789767772e-14       9.954174198693e-14       1.212842484776e-16       6.331639612942e-11       7.491489951743e-12      -7.488210099583e-15 
   50       2.191088109190e-10       1.824499506235e-14       7.152337794155e-14       1.263141112517e-16       6.059164719198e-11       7.198077786723e-12      -6.452957875946e-15 
   51       2.222274769485e-10       1.942608560675e-14       4.176612487996e-14       1.314477453337e-16       5.801525543123e-11       6.920843169499e-12      -6.014865442162e-15 
   52       2.253804383411e-10       2.065141273206e-14       1.022870490085e-14       1.366848412318e-16       5.558474623863e-11       6.659305500751e-12      -6.065882619557e-15 
   53       2.285655114285e-10       2.192116739008e-14      -2.313502873267e-14       1.420250347192e-16       5.329210834355e-11       6.412339853215e-12      -6.472342080482e-15 
   54       2.317781237140e-10       2.323548667204e-14      -5.837648055590e-14       1.474679045935e-16       5.112342136386e-11       6.178134200076e-12      -7.073601944501e-15 
   55       2.350134095268e-10       2.459441418275e-14      -9.554584681771e-14       1.530130184834e-16       4.906309329591e-11       5.954723547369e-12      -7.712755568418e-15 
   56       2.382735009554e-10       2.599777282273e-14      -1.346699451049e-13       1.586600887336e-16       4.710865895642e-11       5.741845701008e-12      -8.340804362229e-15 
   57       2.415617466477e-10       2.744525796563e-14      -1.757695584196e-13       1.644088513189e-16       4.525900541684e-11       5.539471594308e-12      -8.935986137656e-15 
   58       2.448805207731e-10       2.893647010584e-14      -2.188659269146e-13       1.702590208275e-16       4.350989551053e-11       5.347248921979e-12      -9.473869572657e-15 
   59       2.482311392520e-10       3.047091197767e-14      -2.639808697767e-13       1.762102900911e-16       4.185377499139e-11       5.164481845305e-12      -9.927246178805e-15 
   60       2.516137759858e-10       3.204798567446e-14      -3.111369071097e-13       1.822623298160e-16       4.027957969246e-11       4.990110697324e-12      -1.026602226865e-14 
   61       2.550281745717e-10       3.366706945396e-14      -3.603528588445e-13       1.884148559421e-16       3.877580277977e-11       4.823026312576e-12      -1.046694308000e-14 
   62       2.584761596376e-10       3.532777481763e-14      -4.116292113510e-13       1.946678502257e-16       3.734093730368e-11       4.663141376382e-12      -1.054556014038e-14 
   63       2.619595431175e-10       3.702974228601e-14      -4.649596675405e-13       2.010213887388e-16       3.597504605705e-11       4.510524632289e-12      -1.053128027002e-14 
   64       2.654793211369e-10       3.877256645897e-14      -5.203353587982e-13       2.074755802538e-16       3.467662068372e-11       4.365077991792e-12      -1.045836649249e-14 
   65       2.690356154836e-10       4.055579566323e-14      -5.777448233557e-13       2.140305680232e-16       3.344249227746e-11       4.226526856890e-12      -1.036614196894e-14 
   66       2.726276150772e-10       4.237893159992e-14      -6.371739846634e-13       2.206865315595e-16       3.226774198094e-11       4.094410442657e-12      -1.029919393244e-14 
   67       2.762535174390e-10       4.424142899206e-14      -6.986061297629e-13       2.274436884145e-16       3.114561158471e-11       3.968072099797e-12      -1.030757762220e-14 
   68       2.799114505058e-10       4.614259570151e-14      -7.620190488353e-13       2.343022872488e-16       3.006930526640e-11       3.846841879300e-12      -1.043392952396e-14 
   69       2.836025857972e-10       4.808127036562e-14      -8.273758291413e-13       2.412625814324e-16       2.903801858435e-11       3.730648814691e-12      -1.067131905933e-14 
   70       2.873285538103e-10       5.005607850795e-14      -8.946321482674e-13       2.483248532672e-16       2.805197612591e-11       3.619515889350e-12      -1.099718365587e-14 
   71       2.910904866328e-10       5.206552344348e-14      -9.637388553598e-13       2.554894237530e-16       2.711060815815e-11       3.513374096186e-12      -1.138553527408e-14 
   72       2.948889844861e-10       5.410798338054e-14      -1.034641876892e-12       2.627566541445e-16       2.621250959358e-11       3.412057676882e-12      -1.180682954133e-14 
   73       2.987240822675e-10       5.618170852287e-14      -1.107282122434e-12       2.701269475079e-16       2.535539895594e-11       3.315299361132e-12      -1.222783488578e-14 
   74       3.025952160932e-10       5.828481817155e-14      -1.181595390419e-12       2.776007502780e-16       2.453607734584e-11       3.222725605884e-12      -1.261150167032e-14 
   75       3.065011898412e-10       6.041529782706e-14      -1.257512273915e-12       2.851785538151e-16       2.375038740658e-11       3.133851834581e-12      -1.291683132645e-14 
   76       3.104408065767e-10       6.257116420067e-14      -1.334968209689e-12       2.928608144363e-16       2.299424336685e-11       3.048203168275e-12      -1.310822449044e-14 
   77       3.144149697200e-10       6.475100139422e-14      -1.413935949317e-12       3.006476932331e-16       2.226702872757e-11       2.965712559846e-12      -1.318578272332e-14 
   78       3.184249060317e-10       6.695351768450e-14      -1.494398865648e-12       3.085392714165e-16       2.156874648726e-11       2.886386949446e-12      -1.316032037065e-14 
   79       3.224715152189e-10       6.917738682411e-14      -1.576341446728e-12       3.165356275204e-16       2.089898426835e-11       2.810186061352e-12      -1.304443824506e-14 
   80       3.265553501114e-10       7.142124858654e-14      -1.659749409566e-12       3.246368372866e-16       2.025689524620e-11       2.737020216511e-12      -1.285258713468e-14 
   81       3.306765968388e-10       7.368370931129e-14      -1.744609813894e-12       3.328429735499e-16       1.964117907817e-11       2.666748145103e-12      -1.260113131176e-14 
   82       3.348350550071e-10       7.596334244902e-14      -1.830911175939e-12       3.411541061235e-16       1.905006283261e-11       2.599174799086e-12      -1.230841204118e-14 
   83       3.390301178754e-10       7.825868910663e-14      -1.918643582183e-12       3.495703016839e-16       1.848128191793e-11       2.534049164754e-12      -1.199481108898e-14 
   84       3.432611129979e-10       8.056819280851e-14      -2.007787784784e-12       3.580916376675e-16       1.793262921320e-11       2.471125009858e-12      -1.167911155871e-14 
   85       3.475284324587e-10       8.288999015985e-14      -2.098280161590e-12       3.667182468589e-16       1.740374883089e-11       2.410359487421e-12      -1.136674811257e-14 
   86       3.518325545318e-10       8.522208631785e-14      -2.190042128810e-12       3.754502800183e-16       1.689460613893e-11       2.351743598731e-12      -1.105971626899e-14 
   87       3.561736863133e-10       8.756241713777e-14      -2.282990572519e-12       3.842878926461e-16       1.640493661754e-11       2.295241073053e-12      -1.076010314732e-14 
   88       3.605517499559e-10       8.990884861244e-14      -2.377037777239e-12       3.932312451031e-16       1.593423633779e-11       2.240787237901e-12      -1.047008874665e-14 
   89       3.649663689042e-10       9.225917631179e-14      -2.472091354524e-12       4.022805027321e-16       1.548175244031e-11       2.188287889317e-12      -1.019194722450e-14 
   90       3.694168541290e-10       9.461112482231e-14      -2.568054171540e-12       4.114358359775e-16       1.504647361391e-11       2.137618162147e-12      -9.928048175576e-15 
   91       3.739021903631e-10       9.696234718660e-14      -2.664824279650e-12       4.206974205065e-16       1.462712057418e-11       2.088621400321e-12      -9.680857910571e-15 
   92       3.784210223356e-10       9.931042434283e-14      -2.762294842996e-12       4.300654373296e-16       1.422213654221e-11       2.041108027124e-12      -9.452940734872e-15 
   93       3.829720628624e-10       1.016529575760e-13      -2.860362805617e-12       4.395401684149e-16       1.383005580640e-11       1.994902056922e-12      -9.246363809660e-15 
   94       3.875554172249e-10       1.039878629944e-13      -2.958956539058e-12       4.491222997180e-16       1.345069349748e-11       1.949991086137e-12      -9.060806568133e-15 
   95       3.921714334544e-10       1.063131205124e-13      -3.058012240271e-12       4.588126641627e-16       1.308411798434e-11       1.906396877147e-12      -8.895167996563e-15 
   96       3.968202903573e-10       1.086266854914e-13      -3.157465611460e-12       4.686121516210e-16       1.273028446146e-11       1.864129257480e-12      -8.748130900769e-15 
   97       4.015019895411e-10       1.109264894560e-13      -3.257251908625e-12       4.785217103442e-16       1.238903061747e-11       1.823185644057e-12      -8.618154997942e-15 
   98       4.062163474395e-10       1.132104408107e-13      -3.357305990091e-12       4.885423483942e-16       1.206007230363e-11       1.783550567440e-12      -8.503470008472e-15 
   99       4.109629873387e-10       1.154764255556e-13      -3.457562365044e-12       4.986751350757e-16       1.174299920239e-11       1.745195196072e-12      -8.402068747771e-15 
  100       4.157413314024e-10       1.177223080030e-13      -3.557955242068e-12       5.089212023669e-16       1.143727049588e-11       1.708076860519e-12      -8.311700218102e-15 
  101       4.205505926984e-10       1.199459314939e-13      -3.658418577680e-12       5.192817463510e-16       1.114221053449e-11       1.672138577716e-12      -8.229862700401e-15 
  102       4.253897672232e-10       1.221451191135e-13      -3.758886124863e-12       5.297580286484e-16       1.085700450535e-11       1.637308575212e-12      -8.153796846107e-15 
  103       4.302576259287e-10       1.243176744082e-13      -3.859291481603e-12       5.403513778470e-16       1.058069410088e-11       1.603499815407e-12      -8.080478768985e-15 
  104       4.351529677761e-10       1.264614154352e-13      -3.959565741396e-12       5.510630737054e-16       1.031239430166e-11       1.570630502515e-12      -8.007211533213e-15 
  105       4.400754350080e-10       1.285742806081e-13      -4.059629978764e-12       5.618939788594e-16       1.005198640558e-11       1.538689783055e-12      -7.933505494975e-15 
  106       4.450247936538e-10       1.306542385516e-13      -4.159401834402e-12       5.728448598013e-16       9.799510977539e-12       1.507680074907e-12      -7.859440271273e-15 
  107       4.500006772918e-10       1.326992571136e-13      -4.258797844471e-12       5.839164998076e-16       9.554953216376e-12       1.477596634919e-12      -7.785088697727e-15 
