# Matter power spectrum P(k) at redshift z=0
# for k=1.00946e-05 to 130.37 h/Mpc,
# number of wavenumbers equal to 714
#    1:k (h/Mpc)              2:P (Mpc/h)^3        
       1.009464849392e-05       6.424764467421e+01 
       2.254595584416e-05       1.406013644734e+02 
       3.503816723294e-05       2.149012323085e+02 
       4.760268435468e-05       2.884824077489e+02 
       6.027139435890e-05       3.619333728174e+02 
       7.307693559436e-05       4.355158365855e+02 
       8.605297131448e-05       5.095823367690e+02 
       9.923447476341e-05       5.843755186987e+02 
       1.126580290891e-04       6.600685201371e+02 
       1.263621455605e-04       7.369543015593e+02 
       1.403876035795e-04       8.152955804998e+02 
       1.547778159539e-04       8.953214789578e+02 
       1.695792227905e-04       9.773097699274e+02 
       1.848417171445e-04       1.061518574465e+03 
       2.006191051407e-04       1.148240799469e+03 
       2.169696025972e-04       1.237778597172e+03 
       2.339563691054e-04       1.330472375748e+03 
       2.516480789239e-04       1.426664891090e+03 
       2.701195257346e-04       1.526748337043e+03 
       2.894522550830e-04       1.631117551184e+03 
       3.097352139111e-04       1.740228594948e+03 
       3.310654007132e-04       1.854552765176e+03 
       3.535484922061e-04       1.974612189379e+03 
       3.772994127619e-04       2.100958664869e+03 
       4.024428010618e-04       2.234189246802e+03 
       4.291133146229e-04       2.374937459599e+03 
       4.574556975369e-04       2.523878172270e+03 
       4.876245211381e-04       2.681719122937e+03 
       5.197834934539e-04       2.849196584356e+03 
       5.541042244227e-04       3.027065957574e+03 
       5.907643344400e-04       3.216090202120e+03 
       6.299448092965e-04       3.417021653936e+03 
       6.718265407378e-04       3.630583326168e+03 
       7.165860532352e-04       3.857443233141e+03 
       7.643905052204e-04       4.098188896949e+03 
       8.153921621100e-04       4.353298619186e+03 
       8.697226559257e-04       4.623110493326e+03 
       9.274874509320e-04       4.907800575742e+03 
       9.887609998824e-04       5.207358247529e+03 
       1.053583075995e-03       5.521574611908e+03 
       1.121956686855e-03       5.850037743243e+03 
       1.193847821462e-03       6.192143323187e+03 
       1.269187075031e-03       6.547104314656e+03 
       1.347872978076e-03       6.913946911460e+03 
       1.429776671316e-03       7.291627204068e+03 
       1.514747450523e-03       7.679011509056e+03 
       1.602618671174e-03       8.074900866014e+03 
       1.693213545248e-03       8.478078705126e+03 
       1.786350459668e-03       8.887336916059e+03 
       1.881847568904e-03       9.301503098844e+03 
       1.979526536666e-03       9.719454293092e+03 
       2.079215405112e-03       1.014013712741e+04 
       2.180750645487e-03       1.056257391993e+04 
       2.283978490652e-03       1.098586028080e+04 
       2.388755671666e-03       1.140918022832e+04 
       2.494949683712e-03       1.183179435638e+04 
       2.602438697858e-03       1.225303793716e+04 
       2.711111219785e-03       1.267231860389e+04 
       2.820865578879e-03       1.308910837558e+04 
       2.931609313536e-03       1.350294475849e+04 
       3.043258502730e-03       1.391343025100e+04 
       3.155737080483e-03       1.432020198756e+04 
       3.268976158968e-03       1.472294460098e+04 
       3.382913377512e-03       1.512140369394e+04 
       3.497492288292e-03       1.551533823057e+04 
       3.612661784761e-03       1.590455201352e+04 
       3.728375575478e-03       1.628887475390e+04 
       3.844591703630e-03       1.666815991992e+04 
       3.961272110993e-03       1.704229282956e+04 
       4.078382244082e-03       1.741116790960e+04 
       4.195890699678e-03       1.777470899283e+04 
       4.313768906639e-03       1.813284117844e+04 
       4.431990840826e-03       1.848552125974e+04 
       4.550532770055e-03       1.883270872943e+04 
       4.669373026086e-03       1.917436737058e+04 
       4.788491800896e-03       1.951047446533e+04 
       4.907870964669e-03       1.984105816182e+04 
       5.027493903171e-03       2.016609830697e+04 
       5.147345372394e-03       2.048560256772e+04 
       5.267411368582e-03       2.079958533102e+04 
       5.387679011919e-03       2.110806362182e+04 
       5.508136442378e-03       2.141106297064e+04 
       5.628772726370e-03       2.170861448301e+04 
       5.749577773000e-03       2.200073224294e+04 
       5.870542258865e-03       2.228746168547e+04 
       5.991657560450e-03       2.256883902620e+04 
       6.112915693289e-03       2.284490649084e+04 
       6.234309257161e-03       2.311569647437e+04 
       6.355831386653e-03       2.338125351560e+04 
       6.477475706524e-03       2.364161373624e+04 
       6.599236291355e-03       2.389683617379e+04 
       6.721107629027e-03       2.414697755877e+04 
       6.843084587634e-03       2.439204768486e+04 
       6.965162385466e-03       2.463213840670e+04 
       7.087336563750e-03       2.486727327036e+04 
       7.209602961865e-03       2.509749308004e+04 
       7.331957694789e-03       2.532286678641e+04 
       7.454397132541e-03       2.554350388523e+04 
       7.576917881437e-03       2.575933572814e+04 
       7.699516766966e-03       2.597046067786e+04 
       7.822190818144e-03       2.617693985901e+04 
       7.944937253195e-03       2.637881253335e+04 
       8.067753466432e-03       2.657614132259e+04 
       8.190637016235e-03       2.676897283930e+04 
       8.313585614016e-03       2.695734972746e+04 
       8.436597114079e-03       2.714132090969e+04 
       8.559669504301e-03       2.732093640750e+04 
       8.682800897556e-03       2.749624290276e+04 
       8.805989523813e-03       2.766729736834e+04 
       8.929233722859e-03       2.783414514909e+04 
       9.052531937575e-03       2.799681854684e+04 
       9.175882707736e-03       2.815539385385e+04 
       9.299284664283e-03       2.830990566843e+04 
       9.422736524020e-03       2.846039946310e+04 
       9.546237084713e-03       2.860693170169e+04 
       9.669785220550e-03       2.874953568473e+04 
       9.793379877934e-03       2.888825645949e+04 
       9.917020071586e-03       2.902314653118e+04 
       1.004070488092e-02       2.915424556250e+04 
       1.016443344671e-02       2.928159459189e+04 
       1.028820496794e-02       2.940523802243e+04 
       1.041201869892e-02       2.952522517928e+04 
       1.053587394662e-02       2.964160865899e+04 
       1.065977006814e-02       2.975442262680e+04 
       1.078370646837e-02       2.986370792293e+04 
       1.090768259788e-02       2.996951685594e+04 
       1.103169795086e-02       3.007188137170e+04 
       1.115575206324e-02       3.017084808007e+04 
       1.127984451099e-02       3.026644879478e+04 
       1.140397490846e-02       3.035873130519e+04 
       1.152814290686e-02       3.044772928073e+04 
       1.165234819288e-02       3.053348768636e+04 
       1.177659048739e-02       3.061604685904e+04 
       1.190086954417e-02       3.069544669612e+04 
       1.202518514882e-02       3.077172151275e+04 
       1.214953711769e-02       3.084491344171e+04 
       1.227392529690e-02       3.091505595592e+04 
       1.239834956144e-02       3.098219330563e+04 
       1.252280981431e-02       3.104635437985e+04 
       1.264730598575e-02       3.110749648509e+04 
       1.277183803251e-02       3.116582460102e+04 
       1.289640593717e-02       3.122128251539e+04 
       1.302100970753e-02       3.127382399196e+04 
       1.314564937606e-02       3.132365943891e+04 
       1.327032499934e-02       3.137074315905e+04 
       1.339503665758e-02       3.141510675129e+04 
       1.351978445419e-02       3.145680568944e+04 
       1.364456851541e-02       3.149588264367e+04 
       1.376938898987e-02       3.153221068605e+04 
       1.389424604833e-02       3.156590980860e+04 
       1.401913988334e-02       3.159719161388e+04 
       1.414407070898e-02       3.162601881293e+04 
       1.426903876066e-02       3.165234403801e+04 
       1.439404429485e-02       3.167612500445e+04 
       1.451908758897e-02       3.169755636325e+04 
       1.464416894118e-02       3.171663791979e+04 
       1.476928867029e-02       3.173332910684e+04 
       1.489444711564e-02       3.174753787220e+04 
       1.501964463704e-02       3.175961884606e+04 
       1.514488161469e-02       3.176946042389e+04 
       1.527015844916e-02       3.177703381108e+04 
       1.539547556136e-02       3.178237511006e+04 
       1.552083339260e-02       3.178549378992e+04 
       1.564623240455e-02       3.178654190118e+04 
       1.577167307934e-02       3.178550531482e+04 
       1.589715591960e-02       3.178232108712e+04 
       1.602268144854e-02       3.177712626058e+04 
       1.614825021010e-02       3.176987466167e+04 
       1.627386276901e-02       3.176057823345e+04 
       1.639951971098e-02       3.174938621194e+04 
       1.652522164284e-02       3.173641931435e+04 
       1.665096919269e-02       3.172137494841e+04 
       1.677676301015e-02       3.170426682564e+04 
       1.690260376649e-02       3.168564646604e+04 
       1.702849215493e-02       3.166508710980e+04 
       1.715442889084e-02       3.164271145921e+04 
       1.728041471200e-02       3.161857388529e+04 
       1.740645037890e-02       3.159265388774e+04 
       1.753253667499e-02       3.156491265358e+04 
       1.765867440702e-02       3.153569960702e+04 
       1.778486440536e-02       3.150464048123e+04 
       1.791110752433e-02       3.147215306195e+04 
       1.803740464255e-02       3.143790782700e+04 
       1.816375666334e-02       3.140207467297e+04 
       1.829016451508e-02       3.136465918110e+04 
       1.841662915165e-02       3.132568465363e+04 
       1.854315155281e-02       3.128526279063e+04 
       1.866973272471e-02       3.124347206747e+04 
       1.879637370027e-02       3.120008208730e+04 
       1.892307553971e-02       3.115513886054e+04 
       1.904983933102e-02       3.110901254193e+04 
       1.917666619051e-02       3.106131703891e+04 
       1.930355726329e-02       3.101233792774e+04 
       1.943051372387e-02       3.096214127448e+04 
       1.955753677670e-02       3.091048850818e+04 
       1.968462765677e-02       3.085753209017e+04 
       1.981178763021e-02       3.080322578325e+04 
       1.993901799497e-02       3.074776689524e+04 
       2.006632008140e-02       3.069108267427e+04 
       2.019369525299e-02       3.063327151679e+04 
       2.032114490701e-02       3.057412165205e+04 
       2.044867047529e-02       3.051400169899e+04 
       2.057627342491e-02       3.045260175215e+04 
       2.070395525899e-02       3.039015634093e+04 
       2.083171751748e-02       3.032655617798e+04 
       2.095956177799e-02       3.026180867409e+04 
       2.108748965660e-02       3.019609978956e+04 
       2.121550280877e-02       3.012936166273e+04 
       2.134360293018e-02       3.006162128606e+04 
       2.147179175773e-02       2.999298219416e+04 
       2.160007107043e-02       2.992319441458e+04 
       2.172844269041e-02       2.985263376764e+04 
       2.185690848394e-02       2.978103419864e+04 
       2.198547036247e-02       2.970844280472e+04 
       2.211413028370e-02       2.963505242318e+04 
       2.224289025271e-02       2.956079032482e+04 
       2.237175232311e-02       2.948567192781e+04 
       2.250071859821e-02       2.940985433340e+04 
       2.262979123224e-02       2.933308985260e+04 
       2.275897243165e-02       2.925555765519e+04 
       2.288826445635e-02       2.917721550091e+04 
       2.301766962110e-02       2.909811927681e+04 
       2.314719029689e-02       2.901821974087e+04 
       2.327682891234e-02       2.893765813683e+04 
       2.340658795522e-02       2.885643963286e+04 
       2.353646997393e-02       2.877454381286e+04 
       2.366647757910e-02       2.869195278416e+04 
       2.379661344521e-02       2.860871678049e+04 
       2.392688031224e-02       2.852480841366e+04 
       2.405728098747e-02       2.844021458859e+04 
       2.418781834717e-02       2.835509777655e+04 
       2.431849533854e-02       2.826937637597e+04 
       2.444931498157e-02       2.818317784533e+04 
       2.458028037101e-02       2.809628671204e+04 
       2.471139467843e-02       2.800903024911e+04 
       2.484266115434e-02       2.792114257815e+04 
       2.497408313032e-02       2.783273674482e+04 
       2.510566402132e-02       2.774377746508e+04 
       2.523740732798e-02       2.765441380762e+04 
       2.536931663903e-02       2.756458015478e+04 
       2.550139563382e-02       2.747430890023e+04 
       2.563364808484e-02       2.738370228484e+04 
       2.576607786046e-02       2.729246601135e+04 
       2.589868892768e-02       2.720113535641e+04 
       2.603148535496e-02       2.710904299492e+04 
       2.616447131525e-02       2.701684966744e+04 
       2.629765108904e-02       2.692418138182e+04 
       2.643102906753e-02       2.683110584226e+04 
       2.656460975597e-02       2.673775275194e+04 
       2.669839777708e-02       2.664406478706e+04 
       2.683239787459e-02       2.655008086307e+04 
       2.696661491696e-02       2.645587450318e+04 
       2.710105390117e-02       2.636123379899e+04 
       2.723571995674e-02       2.626649498675e+04 
       2.737061834981e-02       2.617137947683e+04 
       2.750575448744e-02       2.607600542647e+04 
       2.764113392209e-02       2.598036048004e+04 
       2.777676235620e-02       2.588451721504e+04 
       2.791264564702e-02       2.578842684432e+04 
       2.804878981161e-02       2.569230873271e+04 
       2.818520103204e-02       2.559586191446e+04 
       2.832188566076e-02       2.549923867626e+04 
       2.845885022631e-02       2.540242551956e+04 
       2.859610143908e-02       2.530540209402e+04 
       2.873364619748e-02       2.520827402885e+04 
       2.887149159429e-02       2.511099270970e+04 
       2.900964492322e-02       2.501366585739e+04 
       2.914811368590e-02       2.491604516886e+04 
       2.928690559902e-02       2.481851985728e+04 
       2.942602860186e-02       2.472073954297e+04 
       2.956549086412e-02       2.462287154296e+04 
       2.970530079409e-02       2.452489116874e+04 
       2.984546704721e-02       2.442683533710e+04 
       2.998599853497e-02       2.432878706911e+04 
       3.012690443426e-02       2.423057827829e+04 
       3.026819419710e-02       2.413246018202e+04 
       3.040987756082e-02       2.403415762602e+04 
       3.055196455877e-02       2.393584468014e+04 
       3.069446553144e-02       2.383746458952e+04 
       3.083739113820e-02       2.373907875473e+04 
       3.098075236950e-02       2.364066643831e+04 
       3.112456055973e-02       2.354226309108e+04 
       3.126882740071e-02       2.344385784117e+04 
       3.141356495575e-02       2.334543190968e+04 
       3.155878567452e-02       2.324709232077e+04 
       3.170450240861e-02       2.314866684041e+04 
       3.185072842783e-02       2.305023661836e+04 
       3.199747743745e-02       2.295186504723e+04 
       3.214476359623e-02       2.285350217910e+04 
       3.229260153542e-02       2.275515704042e+04 
       3.244100637881e-02       2.265697929731e+04 
       3.258999376375e-02       2.255880735656e+04 
       3.273957986336e-02       2.246049174222e+04 
       3.288978140996e-02       2.236236635621e+04 
       3.304061571975e-02       2.226432715501e+04 
       3.319210071885e-02       2.216629913373e+04 
       3.334425497084e-02       2.206829416405e+04 
       3.349709770584e-02       2.197049503579e+04 
       3.365064885125e-02       2.187266392222e+04 
       3.380492906431e-02       2.177478021462e+04 
       3.395995976648e-02       2.167713407028e+04 
       3.411576317999e-02       2.157951367901e+04 
       3.427236236650e-02       2.148197727504e+04 
       3.442978126809e-02       2.138451268548e+04 
       3.458804475084e-02       2.128712885213e+04 
       3.474717865108e-02       2.118978437274e+04 
       3.490720982455e-02       2.109257105225e+04 
       3.506816619873e-02       2.099549173006e+04 
       3.523007682849e-02       2.089844517121e+04 
       3.539297195542e-02       2.080142891596e+04 
       3.555688307112e-02       2.070462266460e+04 
       3.572184298463e-02       2.060792101930e+04 
       3.588788589457e-02       2.051112927230e+04 
       3.605504746615e-02       2.041457633832e+04 
       3.622336491361e-02       2.031812842117e+04 
       3.639287708845e-02       2.022156963858e+04 
       3.656362457404e-02       2.012526958472e+04 
       3.673564978707e-02       2.002904882379e+04 
       3.690899708648e-02       1.993287098271e+04 
       3.708371289055e-02       1.983669811338e+04 
       3.725984580290e-02       1.974069988679e+04 
       3.743744674815e-02       1.964477906746e+04 
       3.761656911821e-02       1.954897238923e+04 
       3.779726893013e-02       1.945302916998e+04 
       3.797960499676e-02       1.935734764282e+04 
       3.816363911128e-02       1.926165812030e+04 
       3.834943624708e-02       1.916603167769e+04 
       3.853706477458e-02       1.907044235468e+04 
       3.872659669653e-02       1.897489721002e+04 
       3.891810790398e-02       1.887932581907e+04 
       3.911167845479e-02       1.878390623200e+04 
       3.930739287740e-02       1.868838930975e+04 
       3.950534050234e-02       1.859302456717e+04 
       3.970561582476e-02       1.849760744272e+04 
       3.990831890138e-02       1.840218266277e+04 
       4.011355578580e-02       1.830674196342e+04 
       4.032143900672e-02       1.821127850315e+04 
       4.053208809411e-02       1.811577176151e+04 
       4.074563015923e-02       1.802028263126e+04 
       4.096220053497e-02       1.792471781985e+04 
       4.118194348439e-02       1.782908301611e+04 
       4.140501298594e-02       1.773335955314e+04 
       4.163157360554e-02       1.763749660406e+04 
       4.186180146709e-02       1.754162561999e+04 
       4.209588533489e-02       1.744568038842e+04 
       4.233402782341e-02       1.734937147808e+04 
       4.257644675264e-02       1.725306693463e+04 
       4.282337667010e-02       1.715653828715e+04 
       4.307507056429e-02       1.705980619535e+04 
       4.333180179852e-02       1.696279187962e+04 
       4.359386629955e-02       1.686560782804e+04 
       4.386158504121e-02       1.676813834744e+04 
       4.413530687126e-02       1.667033165026e+04 
       4.441541173831e-02       1.657216344068e+04 
       4.470231438732e-02       1.647368109512e+04 
       4.499646860526e-02       1.637474368386e+04 
       4.529837211566e-02       1.627536478763e+04 
       4.560857224110e-02       1.617549646381e+04 
       4.592767247825e-02       1.607499090356e+04 
       4.625634016185e-02       1.597400011314e+04 
       4.659531543350e-02       1.587232890165e+04 
       4.694542178077e-02       1.576989148065e+04 
       4.730757847439e-02       1.566667136567e+04 
       4.768281531055e-02       1.556262036921e+04 
       4.807229016462e-02       1.545747649408e+04 
       4.847730999025e-02       1.535131023921e+04 
       4.889935605909e-02       1.524396491290e+04 
       4.934011444291e-02       1.513524585684e+04 
       4.980151300247e-02       1.502504478437e+04 
       5.028576648100e-02       1.491315375879e+04 
       5.079543172049e-02       1.479932541225e+04 
       5.133347554157e-02       1.468334839694e+04 
       5.190335846157e-02       1.456494437456e+04 
       5.250913816182e-02       1.444363259206e+04 
       5.315559739997e-02       1.431895723086e+04 
       5.384840174606e-02       1.419033402871e+04 
       5.459429275101e-02       1.405700901619e+04 
       5.540132118813e-02       1.391802490788e+04 
       5.627912134401e-02       1.377212225290e+04 
       5.723921812462e-02       1.361754395433e+04 
       5.829533888791e-02       1.345210292318e+04 
