# dimensionless total [l(l+1)/2pi] C_l's
# for l=2 to 3000, i.e. number of multipoles equal to 2999
#
# -> if you prefer output in CAMB/HealPix/LensPix units/order, set 'format' to 'camb' in input file
# -> if you don't want to see such a header, set 'headers' to 'no' in input file
# -> for CMB lensing (phi), these are C_l^phi-phi for the lensing potential.
#    Remember the conversion factors:
#    C_l^dd (deflection) = l(l+1) C_l^phi-phi
#    C_l^gg (shear/convergence) = 1/4 (l(l+1))^2 C_l^phi-phi
#
# 1:l     2:TT                     3:EE                     4:TE                     5:BB                     6:phiphi                 7:TPhi                   8:Ephi               
    2       1.742763023084e-10       7.642851104325e-15       5.080513132942e-13       0.000000000000e+00       9.460015893252e-09       5.821227115190e-10      -2.716983661631e-12 
    3       1.629241248713e-10       1.193538468740e-14       6.231552662105e-13       0.000000000000e+00       5.865077679802e-09       4.126001096816e-10      -2.299462119811e-12 
    4       1.523567283179e-10       1.275987387991e-14       6.277233313321e-13       0.000000000000e+00       4.085733580248e-09       3.123134152692e-10      -1.743058081364e-12 
    5       1.442501010816e-10       1.069294856359e-14       5.719107425415e-13       0.000000000000e+00       3.050338024510e-09       2.467122344550e-10      -1.206813235443e-12 
    6       1.383963714932e-10       7.406054830008e-15       4.891821507254e-13       0.000000000000e+00       2.382365826213e-09       2.007012905051e-10      -7.438592406623e-13 
    7       1.343169494156e-10       4.421767284380e-15       4.015913459970e-13       0.000000000000e+00       1.920581142047e-09       1.668480117873e-10      -3.777294392756e-13 
    8       1.316613823430e-10       2.474000558450e-15       3.216607266746e-13       0.000000000000e+00       1.585446952471e-09       1.411061525936e-10      -1.142214952988e-13 
    9       1.300490190586e-10       1.544358290404e-15       2.560820797267e-13       0.000000000000e+00       1.333925095252e-09       1.210622817593e-10       5.270878895033e-14 
   10       1.292557272238e-10       1.232668366171e-15       2.076443892625e-13       0.000000000000e+00       1.139946061083e-09       1.051394661317e-10       1.372813037675e-13 
   11       1.290763056303e-10       1.132572931354e-15       1.762604567994e-13       0.000000000000e+00       9.632006908469e-10       9.258071571883e-11       1.580814818676e-13 
   12       1.293603882123e-10       1.025753441223e-15       1.598867928502e-13       0.000000000000e+00       8.414416717914e-10       8.182872413059e-11       1.367576219768e-13 
   13       1.300065212414e-10       8.820846948784e-16       1.553320401897e-13       0.000000000000e+00       7.414812921564e-10       7.286726902749e-11       9.199859578361e-14 
   14       1.309769895146e-10       7.587338332969e-16       1.589720201092e-13       0.000000000000e+00       6.583239883226e-10       6.547439263543e-11       4.020797602712e-14 
   15       1.321711786007e-10       7.032257244396e-16       1.673729233121e-13       0.000000000000e+00       5.883407381536e-10       5.904415649358e-11      -7.131558859015e-15 
   16       1.335305785901e-10       7.151711120630e-16       1.777649763448e-13       0.000000000000e+00       5.288397863861e-10       5.351847521156e-11      -4.244908947710e-14 
   17       1.350640107872e-10       7.618267378235e-16       1.882454000131e-13       0.000000000000e+00       4.778010818991e-10       4.876218828636e-11      -6.265796325207e-14 
   18       1.367423888008e-10       8.102755055744e-16       1.976710134697e-13       0.000000000000e+00       4.335074255871e-10       4.460248960939e-11      -6.835254972123e-14 
   19       1.385588175117e-10       8.583587186062e-16       2.058477021058e-13       0.000000000000e+00       3.952531070461e-10       4.095945031130e-11      -6.227319876715e-14 
   20       1.404522446161e-10       9.158231935622e-16       2.129297004412e-13       0.000000000000e+00       3.615653176091e-10       3.768763846843e-11      -4.905015165933e-14 
   21       1.424286369338e-10       9.992393626231e-16       2.193683084688e-13       0.000000000000e+00       3.319141015227e-10       3.476621490643e-11      -3.275131485236e-14 
   22       1.444791998157e-10       1.126230913290e-15       2.257805638485e-13       0.000000000000e+00       3.055884956055e-10       3.216868585864e-11      -1.769230108990e-14 
   23       1.466047718524e-10       1.296226980864e-15       2.326319199143e-13       0.000000000000e+00       2.822259795483e-10       2.986555392561e-11      -6.268537618942e-15 
   24       1.487847857731e-10       1.501333613249e-15       2.402928400119e-13       0.000000000000e+00       2.612861746135e-10       2.779679517677e-11      -6.451861203883e-17 
   25       1.510201697547e-10       1.736893190447e-15       2.487464440559e-13       0.000000000000e+00       2.425221422295e-10       2.593195377554e-11       9.834936882858e-16 
   26       1.533016904039e-10       1.999060288511e-15       2.577549731882e-13       0.000000000000e+00       2.255936087747e-10       2.423376606626e-11      -2.159151600242e-15 
   27       1.556321509036e-10       2.288299663117e-15       2.668928242903e-13       0.000000000000e+00       2.102975160217e-10       2.269361004356e-11      -7.928981500336e-15 
   28       1.580066309687e-10       2.605845599451e-15       2.756125274169e-13       0.000000000000e+00       1.963703384528e-10       2.129966986283e-11      -1.440478400443e-14 
   29       1.604318423161e-10       2.950409554987e-15       2.834688066354e-13       0.000000000000e+00       1.837406671065e-10       2.004085006474e-11      -2.037630409184e-14 
   30       1.629033132335e-10       3.319285466202e-15       2.899730737903e-13       0.000000000000e+00       1.722723931564e-10       1.889168089571e-11      -2.465889182562e-14 
   31       1.654049648773e-10       3.710095490768e-15       2.946405168497e-13       0.000000000000e+00       1.617310781592e-10       1.781753466391e-11      -2.614573231507e-14 
   32       1.679439568692e-10       4.125399306256e-15       2.973774676477e-13       0.000000000000e+00       1.520622177965e-10       1.681749179156e-11      -2.501394315219e-14 
   33       1.705259358894e-10       4.569888916941e-15       2.982425013174e-13       0.000000000000e+00       1.431975368460e-10       1.589573075955e-11      -2.199187238605e-14 
   34       1.731476030580e-10       5.048468749086e-15       2.973461595054e-13       0.000000000000e+00       1.350130353228e-10       1.505033957587e-11      -1.797553181035e-14 
   35       1.758073992708e-10       5.563453767479e-15       2.948339177456e-13       0.000000000000e+00       1.274665820592e-10       1.427558176531e-11      -1.370505129042e-14 
   36       1.784964312258e-10       6.116419822255e-15       2.909044521971e-13       0.000000000000e+00       1.204972552111e-10       1.355922632888e-11      -9.998635428454e-15 
   37       1.812013495077e-10       6.708752312216e-15       2.857601730111e-13       0.000000000000e+00       1.140139637228e-10       1.288610963263e-11      -7.642060219841e-15 
   38       1.839278931181e-10       7.341007772239e-15       2.794080181331e-13       0.000000000000e+00       1.079998795579e-10       1.225475612599e-11      -6.677470184027e-15 
   39       1.866837929598e-10       8.013318561545e-15       2.717943154616e-13       0.000000000000e+00       1.024359445984e-10       1.166554684241e-11      -6.879644002774e-15 
   40       1.894717253400e-10       8.725539606249e-15       2.628570341089e-13       0.000000000000e+00       9.726911809910e-11       1.111592377520e-11      -7.938614148512e-15 
   41       1.922907374174e-10       9.477464787138e-15       2.525093146083e-13       0.000000000000e+00       9.243084017585e-11       1.060160056502e-11      -9.485675779242e-15 
   42       1.951424799498e-10       1.026960615206e-14       2.405856777405e-13       0.000000000000e+00       8.790677617450e-11       1.012131851456e-11      -1.119626994430e-14 
   43       1.980260244549e-10       1.110263662496e-14       2.268768580388e-13       0.000000000000e+00       8.368478763551e-11       9.673183743311e-12      -1.271031831724e-14 
   44       2.009355955857e-10       1.197717401955e-14       2.111420050865e-13       0.000000000000e+00       7.973400070237e-11       9.253154278377e-12      -1.359917558660e-14 
   45       2.038640273399e-10       1.289377170981e-14       1.931660245124e-13       0.000000000000e+00       7.601580698454e-11       8.856425857332e-12      -1.349093824612e-14 
   46       2.068154102350e-10       1.385289361515e-14       1.729565676924e-13       0.000000000000e+00       7.252430074261e-11       8.482480624879e-12      -1.250013912939e-14 
   47       2.097954698058e-10       1.485492718910e-14       1.506026683313e-13       0.000000000000e+00       6.925539517297e-11       8.131261049461e-12      -1.091994949471e-14 
   48       2.128077808760e-10       1.590018644865e-14       1.262220485261e-13       0.000000000000e+00       6.619462918749e-11       7.801669582134e-12      -9.107649827140e-15 
   49       2.158535481348e-10       1.698890891743e-14       9.996261173581e-14       0.000000000000e+00       6.331639616234e-11       7.491489602370e-12      -7.488209300982e-15 
   50       2.189323916676e-10       1.812128807722e-14       7.196393959472e-14       0.000000000000e+00       6.059164722414e-11       7.198077368032e-12      -6.452956812210e-15 
   51       2.220454639799e-10       1.929758819859e-14       4.222599764591e-14       0.000000000000e+00       5.801525546264e-11       6.920842695016e-12      -6.014864453008e-15 
   52       2.251927997685e-10       2.051805539585e-14       1.070737195221e-14       0.000000000000e+00       5.558474626928e-11       6.659304980034e-12      -6.065881953475e-15 
   53       2.283722168675e-10       2.178288348999e-14      -2.263822953505e-14       0.000000000000e+00       5.329210837346e-11       6.412339291014e-12      -6.472341875912e-15 
   54       2.315791441177e-10       2.309221262290e-14      -5.786236617888e-14       0.000000000000e+00       5.112342139305e-11       6.178133595453e-12      -7.073602210042e-15 
   55       2.348087172030e-10       2.444608956886e-14      -9.501539359706e-14       0.000000000000e+00       4.906309332441e-11       5.954722895015e-12      -7.712756191554e-15 
   56       2.380630701956e-10       2.584434029831e-14      -1.341242763652e-13       0.000000000000e+00       4.710865898424e-11       5.741844999884e-12      -8.340805214076e-15 
   57       2.413455538861e-10       2.728666332882e-14      -1.752099452321e-13       0.000000000000e+00       4.525900544400e-11       5.539470850710e-12      -8.935987103851e-15 
   58       2.446585445718e-10       2.877266243847e-14      -2.182937937379e-13       0.000000000000e+00       4.350989553707e-11       5.347248150557e-12      -9.473870557044e-15 
   59       2.480033602877e-10       3.030184378775e-14      -2.633978001341e-13       0.000000000000e+00       4.185377501732e-11       5.164481070133e-12      -9.927247107297e-15 
   60       2.513801770383e-10       3.187361304138e-14      -3.105446493032e-13       0.000000000000e+00       4.027957971779e-11       4.990109953007e-12      -1.026602309329e-14 
   61       2.547887408504e-10       3.348735200043e-14      -3.597533278096e-13       0.000000000000e+00       3.877580280452e-11       4.823025642325e-12      -1.046694377832e-14 
   62       2.582308802096e-10       3.514267511015e-14      -4.110244778370e-13       0.000000000000e+00       3.734093732786e-11       4.663140820090e-12      -1.054556069910e-14 
   63       2.617084114848e-10       3.683922568275e-14      -4.643519571731e-13       0.000000000000e+00       3.597504608067e-11       4.510524222431e-12      -1.053128068124e-14 
   64       2.652223355107e-10       3.857660111948e-14      -5.197270547015e-13       0.000000000000e+00       3.467662070680e-11       4.365077752147e-12      -1.045836675439e-14 
   65       2.687727790697e-10       4.035435255525e-14      -5.771384686883e-13       0.000000000000e+00       3.344249229999e-11       4.226526801217e-12      -1.036614208659e-14 
   66       2.723589363743e-10       4.217198450328e-14      -6.365722850669e-13       0.000000000000e+00       3.226774200294e-11       4.094410573310e-12      -1.029919391858e-14 
   67       2.759790105489e-10       4.402895449979e-14      -6.980119557247e-13       0.000000000000e+00       3.114561160618e-11       3.968072406293e-12      -1.030757749809e-14 
   68       2.796311353478e-10       4.592457307236e-14      -7.614354400624e-13       0.000000000000e+00       3.006930528734e-11       3.846842338956e-12      -1.043392931831e-14 
   69       2.833164879889e-10       4.785768090277e-14      -8.268060056391e-13       0.000000000000e+00       2.903801860476e-11       3.730649400099e-12      -1.067131880105e-14 
   70       2.870367048359e-10       4.982690530998e-14      -8.940795159228e-13       0.000000000000e+00       2.805197614581e-11       3.619516570304e-12      -1.099718337177e-14 
   71       2.907929241219e-10       5.183075128584e-14      -9.632070095128e-13       0.000000000000e+00       2.711060817754e-11       3.513374839615e-12      -1.138553498843e-14 
   72       2.945857525014e-10       5.386759859052e-14      -1.034134605875e-12       0.000000000000e+00       2.621250961249e-11       3.412058446776e-12      -1.180682927533e-14 
   73       2.984152316027e-10       5.593569884789e-14      -1.106803411076e-12       0.000000000000e+00       2.535539897439e-11       3.315300118473e-12      -1.222783465709e-14 
   74       3.022808045794e-10       5.803317264090e-14      -1.181149423521e-12       0.000000000000e+00       2.453607736387e-11       3.222726308576e-12      -1.261150149246e-14 
   75       3.061812826631e-10       6.015800660698e-14      -1.257103439686e-12       0.000000000000e+00       2.375038742421e-11       3.133852437378e-12      -1.291683120830e-14 
   76       3.101154760476e-10       6.230821850352e-14      -1.334601104896e-12       0.000000000000e+00       2.299424338413e-11       3.048203624878e-12      -1.310822443623e-14 
   77       3.140842933002e-10       6.448239357581e-14      -1.413615389987e-12       0.000000000000e+00       2.226702874455e-11       2.965712831930e-12      -1.318578273442e-14 
   78       3.180889657989e-10       6.667924117567e-14      -1.494129893171e-12       0.000000000000e+00       2.156874650395e-11       2.886387010031e-12      -1.316032044592e-14 
   79       3.221303978579e-10       6.889743599948e-14      -1.576129332318e-12       0.000000000000e+00       2.089898428478e-11       2.810185896160e-12      -1.304443838056e-14 
   80       3.262091469026e-10       7.113561862787e-14      -1.659599658714e-12       0.000000000000e+00       2.025689526239e-11       2.737019825374e-12      -1.285258732342e-14 
   81       3.303254036438e-10       7.339239606551e-14      -1.744528170836e-12       0.000000000000e+00       1.964117909413e-11       2.666747543409e-12      -1.260113154344e-14 
   82       3.344789722531e-10       7.566634228083e-14      -1.830903628116e-12       0.000000000000e+00       1.905006284832e-11       2.599174019277e-12      -1.230841230189e-14 
   83       3.386692505371e-10       7.795599874579e-14      -1.918716364709e-12       0.000000000000e+00       1.848128193338e-11       2.534048257865e-12      -1.199481136093e-14 
   84       3.428955705713e-10       8.025980923829e-14      -2.007947374635e-12       0.000000000000e+00       1.793262922835e-11       2.471124042191e-12      -1.167911182123e-14 
   85       3.471583289110e-10       8.257591064861e-14      -2.098533238983e-12       0.000000000000e+00       1.740374884572e-11       2.410358521580e-12      -1.136674834724e-14 
   86       3.514580082677e-10       8.490230832149e-14      -2.190395565934e-12       0.000000000000e+00       1.689460615342e-11       2.351742687779e-12      -1.105971646129e-14 
   87       3.557948201452e-10       8.723693815325e-14      -2.283451431892e-12       0.000000000000e+00       1.640493663165e-11       2.295240259303e-12      -1.076010328714e-14 
   88       3.601686910720e-10       8.957766602669e-14      -2.377613309901e-12       0.000000000000e+00       1.593423635152e-11       2.240786551679e-12      -1.047008882869e-14 
   89       3.645792488346e-10       9.192228724608e-14      -2.472788998053e-12       0.000000000000e+00       1.548175245366e-11       2.188287347681e-12      -1.019194724879e-14 
   90       3.690258087099e-10       9.426852597200e-14      -2.568881547902e-12       0.000000000000e+00       1.504647362685e-11       2.137617767572e-12      -9.928048147985e-15 
   91       3.735073596987e-10       9.661403465632e-14      -2.665789192877e-12       0.000000000000e+00       1.462712058674e-11       2.088621139342e-12      -9.680857843275e-15 
   92       3.780225507578e-10       9.895639347712e-14      -2.763405276694e-12       0.000000000000e+00       1.422213655439e-11       2.041107868948e-12      -9.452940646904e-15 
   93       3.825700994205e-10       1.012932024025e-13      -2.861626911202e-12       0.000000000000e+00       1.383005581822e-11       1.994901956157e-12      -9.246363725652e-15 
   94       3.871501178585e-10       1.036223744482e-13      -2.960382594941e-12       0.000000000000e+00       1.345069350895e-11       1.949990998680e-12      -9.060806511428e-15 
   95       3.917629617336e-10       1.059418856869e-13      -3.059608635384e-12       0.000000000000e+00       1.308411799548e-11       1.906396764832e-12      -8.895167987138e-15 
   96       3.964088177188e-10       1.082496872451e-13      -3.159240837216e-12       0.000000000000e+00       1.273028447229e-11       1.864129088763e-12      -8.748130954859e-15 
   97       4.010876955293e-10       1.105437060107e-13      -3.259214550570e-12       0.000000000000e+00       1.238903062801e-11       1.823185394723e-12      -8.618155127650e-15 
   98       4.057994199533e-10       1.128218453386e-13      -3.359464719271e-12       0.000000000000e+00       1.206007231389e-11       1.783550221323e-12      -8.503470221374e-15 
   99       4.105436228829e-10       1.150819857575e-13      -3.459925929072e-12       0.000000000000e+00       1.174299921237e-11       1.745194745798e-12      -8.402069046505e-15 
  100       4.153197353454e-10       1.173219856763e-13      -3.560532455899e-12       0.000000000000e+00       1.143727050560e-11       1.708076308272e-12      -8.311700599948e-15 
  101       4.201269795332e-10       1.195396820904e-13      -3.661218314084e-12       0.000000000000e+00       1.114221054396e-11       1.672137936019e-12      -8.229863156855e-15 
  102       4.249643608360e-10       1.217328912883e-13      -3.761917304613e-12       0.000000000000e+00       1.085700451458e-11       1.637307867724e-12      -8.153797362435e-15 
  103       4.298306598706e-10       1.238994095577e-13      -3.862563063358e-12       0.000000000000e+00       1.058069410988e-11       1.603499077750e-12      -8.080479323774e-15 
  104       4.347246848061e-10       1.260370472419e-13      -3.963086720753e-12       0.000000000000e+00       1.031239431042e-11       1.570629780083e-12      -8.007212099560e-15 
  105       4.396460843207e-10       1.281437346255e-13      -4.063409416847e-12       0.000000000000e+00       1.005198641411e-11       1.538689119285e-12      -7.933506046860e-15 
  106       4.445946301178e-10       1.302174317356e-13      -4.163448860366e-12       0.000000000000e+00       9.799510985848e-12       1.507679507835e-12      -7.859440785433e-15 
  107       4.495699613920e-10       1.322560973298e-13      -4.263121648722e-12       0.000000000000e+00       9.554953224461e-12       1.477596196633e-12      -7.785089153947e-15 
