# dimensionless total lensed [l(l+1)/2pi] C_l's
# for l=2 to 2500, i.e. number of multipoles equal to 2499
#
# -> if you prefer output in CAMB/HealPix/LensPix units/order, set 'format' to 'camb' in input file
# -> if you don't want to see such a header, set 'headers' to 'no' in input file
# -> for CMB lensing (phi), these are C_l^phi-phi for the lensing potential.
#    Remember the conversion factors:
#    C_l^dd (deflection) = l(l+1) C_l^phi-phi
#    C_l^gg (shear/convergence) = 1/4 (l(l+1))^2 C_l^phi-phi
#
# 1:l     2:TT                     3:EE                     4:TE                     5:BB                     6:phiphi                 7:TPhi                   8:Ephi               
    2       1.742769008982e-10       7.643136552792e-15       5.080513069513e-13       2.854545887098e-19       9.460015907253e-09       5.821227112119e-10      -2.716983660265e-12 
    3       1.629253195125e-10       1.193595580813e-14       6.231552394589e-13       5.711297596515e-19       5.865077688293e-09       4.126001096887e-10      -2.299462118665e-12 
    4       1.523587136320e-10       1.276082623854e-14       6.277232558786e-13       9.523660047633e-19       4.085733584133e-09       3.123134154893e-10      -1.743058080526e-12 
    5       1.442530683103e-10       1.069437800112e-14       5.719105718471e-13       1.429437910955e-18       3.050338025961e-09       2.467122342891e-10      -1.206813234847e-12 
    6       1.384005078216e-10       7.408057517527e-15       4.891818163415e-13       2.002672543816e-18       2.382365826384e-09       2.007012900777e-10      -7.438592401947e-13 
    7       1.343224375049e-10       4.424439768489e-15       4.015907544015e-13       2.672439600232e-18       1.920581141890e-09       1.668480118352e-10      -3.777294389474e-13 
    8       1.316683995824e-10       2.477439796001e-15       3.216597564413e-13       3.439140473608e-18       1.585446952447e-09       1.411061529949e-10      -1.142214952194e-13 
    9       1.300577372590e-10       1.548661671934e-15       2.560805794150e-13       4.303196652594e-18       1.333925095537e-09       1.210622816759e-10       5.270878885207e-14 
   10       1.292663125679e-10       1.237933727238e-15       2.076421756062e-13       5.265037897713e-18       1.139946061662e-09       1.051394656232e-10       1.372813037559e-13 
   11       1.290889184066e-10       1.138898551400e-15       1.762573138037e-13       6.325090645833e-18       9.632006909564e-10       9.258071570103e-11       1.580814819885e-13 
   12       1.293751828646e-10       1.033238029978e-15       1.598824708718e-13       7.483767079898e-18       8.414416719122e-10       8.182872466490e-11       1.367576219175e-13 
   13       1.300236457661e-10       8.908273670717e-16       1.553262562357e-13       8.741455271131e-18       7.414812922857e-10       7.286726909797e-11       9.199859538726e-14 
   14       1.309965870130e-10       7.688340718309e-16       1.589644579322e-13       1.009851075441e-17       6.583239884583e-10       6.547439204182e-11       4.020797566488e-14 
   15       1.321933860424e-10       7.147833345624e-16       1.673632341306e-13       1.155524983654e-17       5.883407382939e-10       5.904415630115e-11      -7.131558761569e-15 
   16       1.335555290153e-10       7.282861659484e-16       1.777527798819e-13       1.311194486410e-17       5.288397865296e-10       5.351847581277e-11      -4.244908909986e-14 
   17       1.350918305616e-10       7.765995130994e-16       1.882302852402e-13       1.476882159587e-17       4.778010820446e-10       4.876218860861e-11      -6.265796315862e-14 
   18       1.367732013905e-10       8.268064174493e-16       1.976525405634e-13       1.652605771469e-17       4.335074257335e-10       4.460248932860e-11      -6.835254992836e-14 
   19       1.385927428324e-10       8.767482517692e-16       2.058254033754e-13       1.838378960146e-17       3.952531071930e-10       4.095944984154e-11      -6.227319899105e-14 
   20       1.404893987083e-10       9.361718249615e-16       2.129030817522e-13       2.034210482763e-17       3.615653177557e-10       3.768763860002e-11      -4.905015154484e-14 
   21       1.424691326432e-10       1.021647494849e-15       2.193368503143e-13       2.240106264738e-17       3.319141016685e-10       3.476621554593e-11      -3.275131445952e-14 
   22       1.445231473923e-10       1.150798797901e-15       2.257437228576e-13       2.456068513500e-17       3.055884957500e-10       3.216868583391e-11      -1.769230096607e-14 
   23       1.466522794697e-10       1.323054658526e-15       2.325891297942e-13       2.682098184866e-17       2.822259796913e-10       2.986555315841e-11      -6.268537881163e-15 
   24       1.488359599143e-10       1.530520843502e-15       2.402435128652e-13       2.918194090942e-17       2.612861747547e-10       2.779679510468e-11      -6.451873723209e-17 
   25       1.510751148257e-10       1.768539405419e-15       2.486899708657e-13       3.164355805441e-17       2.425221423687e-10       2.593195465145e-11       9.834938839339e-16 
   26       1.533605088337e-10       2.033264533141e-15       2.576907249703e-13       3.420582578581e-17       2.255936089118e-10       2.423376637286e-11      -2.159151473422e-15 
   27       1.556949435526e-10       2.325160557258e-15       2.668201531793e-13       3.686875891828e-17       2.102975161566e-10       2.269360917173e-11      -7.928981592028e-15 
   28       1.580734973413e-10       2.645461291987e-15       2.755307680034e-13       3.963238752193e-17       1.963703385853e-10       2.129966882030e-11      -1.440478402117e-14 
   29       1.605028802253e-10       2.992877714425e-15       2.833772770605e-13       4.249678702532e-17       1.837406672366e-10       2.004084977250e-11      -2.037630384083e-14 
   30       1.629786187697e-10       3.364703243922e-15       2.898710772022e-13       4.546206041354e-17       1.722723932841e-10       1.889168152844e-11      -2.465889143752e-14 
   31       1.654846323707e-10       3.758559483878e-15       2.945273434214e-13       4.852833792971e-17       1.617310782845e-10       1.781753563926e-11      -2.614573220602e-14 
   32       1.680280783909e-10       4.177005559214e-15       2.972523979402e-13       5.169579846978e-17       1.520622179194e-10       1.681749253702e-11      -2.501394353023e-14 
   33       1.706146010069e-10       4.624732900361e-15       2.981048090038e-13       5.496466248093e-17       1.431975369665e-10       1.589573099568e-11      -2.199187303446e-14 
   34       1.732408986422e-10       5.106645332344e-15       2.971951146286e-13       5.833518644949e-17       1.350130354409e-10       1.505033933647e-11      -1.797553214485e-14 
   35       1.759054091492e-10       5.625057200655e-15       2.946687925916e-13       6.180764952058e-17       1.274665821749e-10       1.427558117715e-11      -1.370505098562e-14 
   36       1.785992358909e-10       6.181543714201e-15       2.907245257769e-13       6.538236815256e-17       1.204972553246e-10       1.355922555084e-11      -9.998634681574e-15 
   37       1.813090259357e-10       6.777489594331e-15       2.855647363020e-13       6.905968365878e-17       1.140139638339e-10       1.288610884580e-11      -7.642059703346e-15 
   38       1.840405149175e-10       7.413450616997e-15       2.791963836060e-13       7.283989572657e-17       1.079998796668e-10       1.225475548201e-11      -6.677470416493e-15 
   39       1.868014302624e-10       8.089558332368e-15       2.715658241919e-13       7.672331084393e-17       1.024359447051e-10       1.166554643869e-11      -6.879645107595e-15 
   40       1.895944445794e-10       8.805666819793e-15       2.626110621283e-13       8.071026231103e-17       9.726911820355e-11       1.111592364018e-11      -7.938615760688e-15 
   41       1.924186012071e-10       9.561569042670e-15       2.522452807686e-13       8.480107925132e-17       9.243084027797e-11       1.060160065891e-11      -9.485677104186e-15 
   42       1.952755473431e-10       1.035777594874e-14       2.403030559701e-13       8.899597738174e-17       8.790677627428e-11       1.012131878518e-11      -1.119627034653e-14 
   43       1.981643509161e-10       1.119495925505e-14       2.265751871504e-13       9.329513557650e-17       8.368478773298e-11       9.673184143111e-12      -1.271031754165e-14 
   44       2.010792328432e-10       1.207373548964e-14       2.108208978840e-13       9.769872498456e-17       7.973400079764e-11       9.253154766659e-12      -1.359917384146e-14 
   45       2.040130234593e-10       1.299465661786e-14       1.928251769238e-13       1.022068796559e-16       7.601580707780e-11       8.856426401891e-12      -1.349093616391e-14 
   46       2.069698104570e-10       1.395818488449e-14       1.725957670711e-13       1.068195992402e-16       7.252430083405e-11       8.482481201466e-12      -1.250013730600e-14 
   47       2.099553168306e-10       1.496470589913e-14       1.502218030045e-13       1.115368162666e-16       6.925539526274e-11       8.131261643038e-12      -1.091994833258e-14 
   48       2.129731149383e-10       1.601453169950e-14       1.258211180457e-13       1.163584202925e-16       6.619462927570e-11       7.801670188890e-12      -9.107649492078e-15 
   49       2.160244070823e-10       1.710789769006e-14       9.954173749806e-14       1.212842556959e-16       6.331639624907e-11       7.491490231846e-12      -7.488209676642e-15 
   50       2.191088110952e-10       1.824499507158e-14       7.152337307136e-14       1.263141187629e-16       6.059164730940e-11       7.198078041803e-12      -6.452957525594e-15 
   51       2.222274775441e-10       1.942608560948e-14       4.176611982635e-14       1.314477531438e-16       5.801525554644e-11       6.920843433655e-12      -6.014865141612e-15 
   52       2.253804393749e-10       2.065141272631e-14       1.022869982739e-14       1.366848493465e-16       5.558474635163e-11       6.659305798813e-12      -6.065882352210e-15 
   53       2.285655128149e-10       2.192116737555e-14      -2.313503370494e-14       1.420250431447e-16       5.329210845435e-11       6.412340198827e-12      -6.472341837246e-15 
   54       2.317781252471e-10       2.323548665035e-14      -5.837648535703e-14       1.474679133356e-16       5.112342147248e-11       6.178134593687e-12      -7.073601725179e-15 
   55       2.350134109021e-10       2.459441415727e-14      -9.554585142954e-14       1.530130275483e-16       4.906309340235e-11       5.954723976409e-12      -7.712755381140e-15 
   56       2.382735019144e-10       2.599777279662e-14      -1.346699495347e-13       1.586600981274e-16       4.710865906070e-11       5.741846147481e-12      -8.340804216274e-15 
   57       2.415617470291e-10       2.744525794126e-14      -1.757695626946e-13       1.644088610478e-16       4.525900551898e-11       5.539472036639e-12      -8.935986041356e-15 
   58       2.448805205288e-10       2.893647008462e-14      -2.188659310850e-13       1.702590308976e-16       4.350989561058e-11       5.347249334730e-12      -9.473869533187e-15 
   59       2.482311384646e-10       3.047091195990e-14      -2.639808739178e-13       1.762103005086e-16       4.185377508940e-11       5.164482198881e-12      -9.927246201948e-15 
   60       2.516137748864e-10       3.204798565914e-14      -3.111369113251e-13       1.822623405871e-16       4.027957978848e-11       4.990110957667e-12      -1.026602235857e-14 
   61       2.550281735165e-10       3.366706943901e-14      -3.603528632543e-13       1.884148670730e-16       3.877580287387e-11       4.823026443395e-12      -1.046694323876e-14 
   62       2.584761589497e-10       3.532777480106e-14      -4.116292160327e-13       1.946678617227e-16       3.734093739592e-11       4.663141349650e-12      -1.054556036680e-14 
   63       2.619595430338e-10       3.702974226635e-14      -4.649596725070e-13       2.010214006079e-16       3.597504614751e-11       4.510524432317e-12      -1.053128055900e-14 
   64       2.654793217947e-10       3.877256643532e-14      -5.203353639888e-13       2.074755925011e-16       3.467662077245e-11       4.365077617001e-12      -1.045836683459e-14 
   65       2.690356169060e-10       4.055579563538e-14      -5.777448286268e-13       2.140305806549e-16       3.344249236452e-11       4.226526321654e-12      -1.036614234989e-14 
   66       2.726276171579e-10       4.237893156840e-14      -6.371739897790e-13       2.206865445815e-16       3.226774206638e-11       4.094409779214e-12      -1.029919433264e-14 
   67       2.762535199273e-10       4.424142895827e-14      -6.986061343847e-13       2.274437018326e-16       3.114561166857e-11       3.968071360237e-12      -1.030757801621e-14 
   68       2.799114530288e-10       4.614259566753e-14      -7.620190525546e-13       2.343023010690e-16       3.006930534870e-11       3.846841132302e-12      -1.043392988186e-14 
   69       2.836025880088e-10       4.808127033321e-14      -8.273758316468e-13       2.412625956604e-16       2.903801866513e-11       3.730648125124e-12      -1.067131935407e-14 
   70       2.873285554384e-10       5.005607847819e-14      -8.946321494046e-13       2.483248679087e-16       2.805197620520e-11       3.619515311650e-12      -1.099718386579e-14 
   71       2.910904874908e-10       5.206552341671e-14      -9.637388551505e-13       2.554894388137e-16       2.711060823598e-11       3.513373672685e-12      -1.138553538371e-14 
   72       2.948889844838e-10       5.410798335625e-14      -1.034641875555e-12       2.627566696301e-16       2.621250966999e-11       3.412057436065e-12      -1.180682954225e-14 
   73       2.987240814232e-10       5.618170849961e-14      -1.107282120407e-12       2.701269634240e-16       2.535539903096e-11       3.315299315840e-12      -1.222783477749e-14 
   74       3.025952145462e-10       5.828481814682e-14      -1.181595388381e-12       2.776007666302e-16       2.453607741952e-11       3.222725751442e-12      -1.261150146111e-14 
   75       3.065011878643e-10       6.041529779723e-14      -1.257512272807e-12       2.851785706088e-16       2.375038747894e-11       3.133852146866e-12      -1.291683103435e-14 
   76       3.104408045552e-10       6.257116416121e-14      -1.334968210651e-12       2.928608316769e-16       2.299424343793e-11       3.048203605920e-12      -1.310822414198e-14 
   77       3.144149680206e-10       6.475100134114e-14      -1.413935953341e-12       3.006477109261e-16       2.226702879741e-11       2.965713079845e-12      -1.318578234536e-14 
   78       3.184249049620e-10       6.695351761478e-14      -1.494398873463e-12       3.085392895675e-16       2.156874655589e-11       2.886387511699e-12      -1.316031998796e-14 
   79       3.224715150191e-10       6.917738673582e-14      -1.576341458765e-12       3.165356461350e-16       2.089898433580e-11       2.810186629239e-12      -1.304443787986e-14 
   80       3.265553509459e-10       7.142124847898e-14      -1.659749425925e-12       3.246368563703e-16       2.025689531252e-11       2.737020757504e-12      -1.285258680632e-14 
   81       3.306765987874e-10       7.368370918513e-14      -1.744609834314e-12       3.328429931085e-16       1.964117914337e-11       2.666748631380e-12      -1.260113103627e-14 
   82       3.348350580556e-10       7.596334230641e-14      -1.830911199755e-12       3.411541261628e-16       1.905006289673e-11       2.599175208182e-12      -1.230841183082e-14 
   83       3.390301219063e-10       7.825868895136e-14      -1.918643608292e-12       3.495703222096e-16       1.848128198099e-11       2.534049480225e-12      -1.199481095181e-14 
   84       3.432611178023e-10       8.056819264577e-14      -2.007787811719e-12       3.580916586857e-16       1.793262927521e-11       2.471125221216e-12      -1.167911149862e-14 
   85       3.475284378150e-10       8.288998999486e-14      -2.098280187927e-12       3.667182683756e-16       1.740374889188e-11       2.410359587656e-12      -1.136674813073e-14 
   86       3.518325602285e-10       8.522208615542e-14      -2.190042153296e-12       3.754503020395e-16       1.689460619892e-11       2.351743583889e-12      -1.105971636408e-14 
   87       3.561736921507e-10       8.756241698227e-14      -2.282990594093e-12       3.842879151778e-16       1.640493667654e-11       2.295240942532e-12      -1.076010331535e-14 
   88       3.605517557484e-10       8.990884846770e-14      -2.377037795059e-12       3.932312681515e-16       1.593423639584e-11       2.240786994764e-12      -1.047008898067e-14 
   89       3.649663744827e-10       9.225917618107e-14      -2.472091367988e-12       4.022805263033e-16       1.548175249742e-11       2.188287540609e-12      -1.019194751439e-14 
   90       3.694168593432e-10       9.461112470821e-14      -2.568054180314e-12       4.114358600778e-16       1.504647367010e-11       2.137617719225e-12      -9.928048507829e-15 
   91       3.739021950837e-10       9.696234709097e-14      -2.664824283691e-12       4.206974451422e-16       1.462712062949e-11       2.088620879187e-12      -9.680858268005e-15 
   92       3.784210264570e-10       9.931042426674e-14      -2.762294842579e-12       4.300654625071e-16       1.422213659664e-11       2.041107448774e-12      -9.452941096393e-15 
   93       3.829720663030e-10       1.016529575197e-13      -2.860362801310e-12       4.395401941406e-16       1.383005585998e-11       1.994901446498e-12      -9.246364151193e-15 
   94       3.875554199196e-10       1.039878629574e-13      -2.958956531512e-12       4.491223259982e-16       1.345069355023e-11       1.949990468286e-12      -9.060806867365e-15 
   95       3.921714353541e-10       1.063131204936e-13      -3.058012230167e-12       4.588126910037e-16       1.308411803627e-11       1.906396274618e-12      -8.895168234440e-15 
   96       3.968202914305e-10       1.086266854887e-13      -3.157465599513e-12       4.686121790291e-16       1.273028451260e-11       1.864128690861e-12      -8.748131061858e-15 
   97       4.015019897750e-10       1.109264894667e-13      -3.257251895577e-12       4.785217383254e-16       1.238903066784e-11       1.823185131507e-12      -8.618155070803e-15 
   98       4.062163468423e-10       1.132104408311e-13      -3.357305976713e-12       4.885423769548e-16       1.206007235325e-11       1.783550124411e-12      -8.503469986039e-15 
   99       4.109629859405e-10       1.154764255812e-13      -3.457562352138e-12       4.986751642216e-16       1.174299925128e-11       1.745194835023e-12      -8.402068627746e-15 
  100       4.157413292575e-10       1.177223080282e-13      -3.557955230464e-12       5.089212321040e-16       1.143727054406e-11       1.708076590623e-12      -8.311700003355e-15 
  101       4.205505898866e-10       1.199459315119e-13      -3.658418568233e-12       5.192817766851e-16       1.114221058197e-11       1.672138404563e-12      -8.229862399384e-15 
  102       4.253897638518e-10       1.221451191166e-13      -3.758886118457e-12       5.297580595852e-16       1.085700455215e-11       1.637308500494e-12      -8.153796473275e-15 
  103       4.302576221341e-10       1.243176743875e-13      -3.859291479148e-12       5.403514093921e-16       1.058069414702e-11       1.603499836608e-12      -8.080478345230e-15 
  104       4.351529637191e-10       1.264614153808e-13      -3.959565743796e-12       5.510631058641e-16       1.031239434715e-11       1.570630613283e-12      -8.007211084747e-15 
  105       4.400754308463e-10       1.285742805114e-13      -4.059629986797e-12       5.618940116373e-16       1.005198645044e-11       1.538689975772e-12      -7.933505047307e-15 
  106       4.450247895345e-10       1.306542384053e-13      -4.159401848671e-12       5.728448932039e-16       9.799511021777e-12       1.507680341346e-12      -7.859439847445e-15 
  107       4.500006733499e-10       1.326992569125e-13      -4.258797865393e-12       5.839165338405e-16       9.554953260006e-12       1.477596966231e-12      -7.785088318042e-15 
