# dimensionless total [l(l+1)/2pi] C_l's
# for l=2 to 3000, i.e. number of multipoles equal to 2999
#
# -> if you prefer output in CAMB/HealPix/LensPix units/order, set 'format' to 'camb' in input file
# -> if you don't want to see such a header, set 'headers' to 'no' in input file
# -> for CMB lensing (phi), these are C_l^phi-phi for the lensing potential.
#    Remember the conversion factors:
#    C_l^dd (deflection) = l(l+1) C_l^phi-phi
#    C_l^gg (shear/convergence) = 1/4 (l(l+1))^2 C_l^phi-phi
#
# 1:l     2:TT                     3:EE                     4:TE                     5:BB                     6:phiphi                 7:TPhi                   8:Ephi               
    2       1.742725151137e-10       7.642369486522e-15       5.080201128384e-13       0.000000000000e+00       9.470033378786e-09       5.820791044078e-10      -2.716950611716e-12 
    3       1.629220247163e-10       1.193476392457e-14       6.231344688695e-13       0.000000000000e+00       5.865260403689e-09       4.125332206867e-10      -2.299392378236e-12 
    4       1.523550345359e-10       1.275915737889e-14       6.276984373294e-13       0.000000000000e+00       4.085941122803e-09       3.122743565799e-10      -1.743013071597e-12 
    5       1.442487198665e-10       1.069234205248e-14       5.718872934059e-13       0.000000000000e+00       3.050223521782e-09       2.466883424407e-10      -1.206768280646e-12 
    6       1.383954422772e-10       7.405632577164e-15       4.891609789086e-13       0.000000000000e+00       2.381921986740e-09       2.006858904189e-10      -7.438291389398e-13 
    7       1.343158257343e-10       4.421517319810e-15       4.015737229961e-13       0.000000000000e+00       1.920122357351e-09       1.668357840467e-10      -3.777095858106e-13 
    8       1.316596276897e-10       2.473871701043e-15       3.216466879312e-13       0.000000000000e+00       1.585061487402e-09       1.410941455640e-10      -1.142089401555e-13 
    9       1.300478309710e-10       1.544299563259e-15       2.560707686813e-13       0.000000000000e+00       1.333430941995e-09       1.210483459810e-10       5.271685781367e-14 
   10       1.292542746498e-10       1.232644847748e-15       2.076355240927e-13       0.000000000000e+00       1.139483502969e-09       1.051284837723e-10       1.372873382728e-13 
   11       1.290755840343e-10       1.132564151083e-15       1.762535100407e-13       0.000000000000e+00       9.631219354108e-10       9.257465253196e-11       1.580872715792e-13 
   12       1.293587713460e-10       1.025745370635e-15       1.598803729787e-13       0.000000000000e+00       8.413705056557e-10       8.182174696294e-11       1.367644680269e-13 
   13       1.300050175618e-10       8.820656947802e-16       1.553247297554e-13       0.000000000000e+00       7.414165843208e-10       7.285995322554e-11       9.200629037468e-14 
   14       1.309752625160e-10       7.586960615956e-16       1.589635891890e-13       0.000000000000e+00       6.582648401716e-10       6.546919409457e-11       4.021603130701e-14 
   15       1.321705498667e-10       7.031668584136e-16       1.673633134885e-13       0.000000000000e+00       5.882864053602e-10       5.904119937772e-11      -7.123444527055e-15 
   16       1.335294157258e-10       7.150940905628e-16       1.777534634106e-13       0.000000000000e+00       5.287896863072e-10       5.351504020565e-11      -4.244158680287e-14 
   17       1.350624449544e-10       7.617367498180e-16       1.882320812385e-13       0.000000000000e+00       4.777547089444e-10       4.875699823718e-11      -6.265177438829e-14 
   18       1.367406222750e-10       8.101754665242e-16       1.976558865461e-13       0.000000000000e+00       4.334644717718e-10       4.459759431571e-11      -6.834817569934e-14 
   19       1.385569728757e-10       8.582482404953e-16       2.058306716851e-13       0.000000000000e+00       3.952129903464e-10       4.095624281482e-11      -6.227050263197e-14 
   20       1.404506155916e-10       9.156982073003e-16       2.129107311591e-13       0.000000000000e+00       3.615278189890e-10       3.768538966807e-11      -4.904828972175e-14 
   21       1.424272330307e-10       9.990945038962e-16       2.193474843422e-13       0.000000000000e+00       3.318790259995e-10       3.476392774395e-11      -3.274986358343e-14 
   22       1.444776860248e-10       1.126060517530e-15       2.257580809123e-13       0.000000000000e+00       3.055555997360e-10       3.216585558448e-11      -1.769156065922e-14 
   23       1.466032734819e-10       1.296025849431e-15       2.326078674644e-13       0.000000000000e+00       2.821950386046e-10       2.986244482735e-11      -6.268414449258e-15 
   24       1.487840161251e-10       1.501097431379e-15       2.402671506132e-13       0.000000000000e+00       2.612570262503e-10       2.779435592924e-11      -6.422816120179e-17 
   25       1.510202691153e-10       1.736618234690e-15       2.487191508883e-13       0.000000000000e+00       2.424946373750e-10       2.593033029947e-11       9.845904528218e-16 
   26       1.533019597162e-10       1.998743194357e-15       2.577262728163e-13       0.000000000000e+00       2.255676121868e-10       2.423198406668e-11      -2.157077167130e-15 
   27       1.556321832255e-10       2.287936214602e-15       2.668628753893e-13       0.000000000000e+00       2.102729053071e-10       2.269118638196e-11      -7.926142378230e-15 
   28       1.580066315665e-10       2.605430567041e-15       2.755814008410e-13       0.000000000000e+00       1.963470123999e-10       2.129706055789e-11      -1.440172542027e-14 
   29       1.604320472245e-10       2.949938322158e-15       2.834366211452e-13       0.000000000000e+00       1.837185273314e-10       2.003854695635e-11      -2.037355451532e-14 
   30       1.629037800238e-10       3.318754789676e-15       2.899400517544e-13       0.000000000000e+00       1.722513490681e-10       1.888987970938e-11      -2.465681653995e-14 
   31       1.654055788937e-10       3.709503329904e-15       2.946069734223e-13       0.000000000000e+00       1.617110557470e-10       1.781611229511e-11      -2.614448353246e-14 
   32       1.679446566215e-10       4.124742608980e-15       2.973436809732e-13       0.000000000000e+00       1.520431459026e-10       1.681624535586e-11      -2.501345994948e-14 
   33       1.705268033957e-10       4.569162646427e-15       2.982086547551e-13       0.000000000000e+00       1.431793493570e-10       1.589445102029e-11      -2.199184237766e-14 
   34       1.731488531848e-10       5.047666029391e-15       2.973122900763e-13       0.000000000000e+00       1.349956763698e-10       1.504883533322e-11      -1.797543030794e-14 
   35       1.758092055623e-10       5.562568206666e-15       2.947997873081e-13       0.000000000000e+00       1.274499982388e-10       1.427376632377e-11      -1.370450745713e-14 
   36       1.784988566619e-10       6.115446438023e-15       2.908694623364e-13       0.000000000000e+00       1.204813973274e-10       1.355716699725e-11      -9.997591217675e-15 
   37       1.812043386052e-10       6.707687408049e-15       2.857234694222e-13       0.000000000000e+00       1.139987897219e-10       1.288402011487e-11      -7.640762176651e-15 
   38       1.839313335536e-10       7.339847089745e-15       2.793691905594e-13       0.000000000000e+00       1.079853479765e-10       1.225284067401e-11      -6.676164329415e-15 
   39       1.866875292050e-10       8.012056584299e-15       2.717537076997e-13       0.000000000000e+00       1.024220150181e-10       1.166394372997e-11      -6.878470698656e-15 
   40       1.894755533666e-10       8.724169304128e-15       2.628159077784e-13       0.000000000000e+00       9.725575452946e-11       1.111468687466e-11      -7.937580066940e-15 
   41       1.922944301806e-10       9.475977903232e-15       2.524696926065e-13       0.000000000000e+00       9.241801264733e-11       1.060069843906e-11      -9.484660828083e-15 
   42       1.951459178103e-10       1.026799536881e-14       2.405490768193e-13       0.000000000000e+00       8.789445553199e-11       1.012069587973e-11      -1.119515721651e-14 
   43       1.980292544344e-10       1.110089643547e-14       2.268437878000e-13       0.000000000000e+00       8.367294542826e-11       9.672778786574e-12      -1.270903793640e-14 
   44       2.009388644284e-10       1.197530111474e-14       2.111117539871e-13       0.000000000000e+00       7.972261113267e-11       9.252899028410e-12      -1.359771585390e-14 
   45       2.038677531355e-10       1.289176475638e-14       1.931368052926e-13       0.000000000000e+00       7.600484774414e-11       8.856248973565e-12      -1.348934003063e-14 
   46       2.068199433777e-10       1.385075093712e-14       1.729268985901e-13       0.000000000000e+00       7.251374974042e-11       8.482318167289e-12      -1.249843242964e-14 
   47       2.098010048490e-10       1.485264595661e-14       1.505718667507e-13       0.000000000000e+00       6.924523041434e-11       8.131061750428e-12      -1.091813168458e-14 
   48       2.128143245306e-10       1.589776242969e-14       1.261903936059e-13       0.000000000000e+00       6.618482990237e-11       7.801398152609e-12      -9.105679507462e-15 
   49       2.158608855086e-10       1.698633621536e-14       9.993151586485e-14       0.000000000000e+00       6.330694401961e-11       7.491130230959e-12      -7.485999820023e-15 
   50       2.189401152082e-10       1.811855925492e-14       7.193577679380e-14       0.000000000000e+00       6.058252672597e-11       7.197633355476e-12      -6.450386556481e-15 
   51       2.220532146732e-10       1.929469571959e-14       4.220277198225e-14       0.000000000000e+00       5.800645141643e-11       6.920322810595e-12      -6.011843584115e-15 
   52       2.252003506547e-10       2.051499208132e-14       1.069024652896e-14       0.000000000000e+00       5.557624353781e-11       6.658719825337e-12      -6.062377448121e-15 
   53       2.283794983749e-10       2.177964261061e-14      -2.264908646463e-14       0.000000000000e+00       5.328389250424e-11       6.411701408146e-12      -6.468387265818e-15 
   54       2.315862706707e-10       2.308878799524e-14      -5.786794271742e-14       0.000000000000e+00       5.111547929134e-11       6.177457577225e-12      -7.069307795470e-15 
   55       2.348159694419e-10       2.444247567333e-14      -9.501770943326e-14       0.000000000000e+00       4.905541345612e-11       5.954024987261e-12      -7.708299516561e-15 
   56       2.380707281984e-10       2.584053245729e-14      -1.341252984393e-13       0.000000000000e+00       4.710122993246e-11       5.741141027905e-12      -8.336355499964e-15 
   57       2.413538446062e-10       2.728265784761e-14      -1.752112379370e-13       0.000000000000e+00       4.525181577921e-11       5.538775408725e-12      -8.931680147764e-15 
   58       2.446676312017e-10       2.876845673586e-14      -2.182964383841e-13       0.000000000000e+00       4.350293418800e-11       5.346574247031e-12      -9.469802097980e-15 
   59       2.480133311181e-10       3.029743653185e-14      -2.634023105842e-13       0.000000000000e+00       4.184703166545e-11       5.163839755209e-12      -9.923465878244e-15 
   60       2.513910338123e-10       3.186900429076e-14      -3.105508837765e-13       0.000000000000e+00       4.027304521528e-11       4.989509928050e-12      -1.026252355948e-14 
   61       2.548004049982e-10       3.348254295967e-14      -3.597605242157e-13       0.000000000000e+00       3.876946923608e-11       4.822473124549e-12      -1.046367225470e-14 
   62       2.582432585582e-10       3.513766661577e-14      -4.110317007644e-13       0.000000000000e+00       3.733479685756e-11       4.662640279785e-12      -1.054246582483e-14 
   63       2.617214150078e-10       3.683401768187e-14      -4.643582192463e-13       0.000000000000e+00       3.596909078160e-11       4.510078412596e-12      -1.052832898185e-14 
   64       2.652358809472e-10       3.857119250714e-14      -5.197313189399e-13       0.000000000000e+00       3.467084275749e-11       4.364687473402e-12      -1.045554550771e-14 
   65       2.687867906231e-10       4.034874100465e-14      -5.771396510740e-13       0.000000000000e+00       3.343688419245e-11       4.226190657483e-12      -1.036346230928e-14 
   66       2.723733474885e-10       4.216616628883e-14      -6.365692573247e-13       0.000000000000e+00       3.226229676201e-11       4.094124718261e-12      -1.029669347319e-14 
   67       2.759937657641e-10       4.402292431309e-14      -6.980035483119e-13       0.000000000000e+00       3.114032302051e-11       3.967830280582e-12      -1.030532432073e-14 
   68       2.796461905980e-10       4.591832441762e-14      -7.614204923443e-13       0.000000000000e+00       3.006416791876e-11       3.846635037124e-12      -1.043201508750e-14 
   69       2.833318056851e-10       4.785120838264e-14      -8.267835682505e-13       0.000000000000e+00       2.903302705531e-11       3.730468095326e-12      -1.066982141102e-14 
   70       2.870522532432e-10       4.982020539298e-14      -8.940489323007e-13       0.000000000000e+00       2.804712493663e-11       3.619353283633e-12      -1.099615446786e-14 
   71       2.908086783164e-10       5.182382252888e-14      -9.631679545695e-13       0.000000000000e+00       2.710589185295e-11       3.513222614135e-12      -1.138499649797e-14 
   72       2.946016953634e-10       5.386044186925e-14      -1.034087126084e-12       0.000000000000e+00       2.620792284949e-11       3.411911528925e-12      -1.180676981163e-14 
   73       2.984313548465e-10       5.592831759498e-14      -1.106747965969e-12       0.000000000000e+00       2.535093669775e-11       3.315154146451e-12      -1.222820579635e-14 
   74       3.022971098207e-10       5.802557309214e-14      -1.181086928596e-12       0.000000000000e+00       2.453173486672e-11       3.222578507869e-12      -1.261221392388e-14 
   75       3.061977825221e-10       6.015019805530e-14      -1.257035310733e-12       0.000000000000e+00       2.374616049418e-11       3.133701823395e-12      -1.291775075706e-14 
   76       3.101321932427e-10       6.230021245208e-14      -1.334529170940e-12       0.000000000000e+00       2.299012829739e-11       3.048050858619e-12      -1.310918134493e-14 
   77       3.141012532037e-10       6.447419933907e-14      -1.413541381338e-12       0.000000000000e+00       2.226302182364e-11       2.965558945970e-12      -1.318662379140e-14 
   78       3.181061943996e-10       6.667086439609e-14      -1.494055279095e-12       0.000000000000e+00       2.156484404201e-11       2.886233070147e-12      -1.316092588565e-14 
   79       3.221479216600e-10       6.888887820086e-14      -1.576055283325e-12       0.000000000000e+00       2.089518260284e-11       2.810032998621e-12      -1.304472623696e-14 
   80       3.262269928195e-10       7.112687675391e-14      -1.659527007548e-12       0.000000000000e+00       2.025319076948e-11       2.736869094087e-12      -1.285251793079e-14 
   81       3.303435988871e-10       7.338346200344e-14      -1.744457372140e-12       0.000000000000e+00       1.963756835003e-11       2.666600126912e-12      -1.260071218480e-14 
   82       3.344975442155e-10       7.565720237025e-14      -1.830834716797e-12       0.000000000000e+00       1.904654262905e-11       2.599031087588e-12      -1.230770200489e-14 
   83       3.386882266714e-10       7.794663327259e-14      -1.918648912984e-12       0.000000000000e+00       1.847784929931e-11       2.533910999178e-12      -1.199392584128e-14 
   84       3.429149774428e-10       8.025019394998e-14      -2.007880545873e-12       0.000000000000e+00       1.792928151784e-11       2.470993604645e-12      -1.167821397701e-14 
   85       3.471781886282e-10       8.256602475124e-14      -2.098466153206e-12       0.000000000000e+00       1.740048342473e-11       2.410235780089e-12      -1.136599233058e-14 
   86       3.514783370894e-10       8.489213704719e-14      -2.190327403158e-12       0.000000000000e+00       1.689142037344e-11       2.351628156392e-12      -1.105923071150e-14 
   87       3.558156278495e-10       8.722647340625e-14      -2.283381442301e-12       0.000000000000e+00       1.640182786266e-11       2.295134054717e-12      -1.075998737978e-14 
   88       3.601899803075e-10       8.956690704864e-14      -2.377540824354e-12       0.000000000000e+00       1.593120201639e-11       2.240688355680e-12      -1.047041022690e-14 
   89       3.646010144516e-10       9.191124130070e-14      -2.472713438930e-12       0.000000000000e+00       1.547879006392e-11       2.188196368520e-12      -1.019273795676e-14 
   90       3.690480370736e-10       9.425720904920e-14      -2.568802440290e-12       0.000000000000e+00       1.504358081993e-11       2.137532700268e-12      -9.929301266646e-15 
   91       3.735300279825e-10       9.660247219558e-14      -2.665706176092e-12       0.000000000000e+00       1.462429516450e-11       2.088540124923e-12      -9.682524028184e-15 
   92       3.780456262185e-10       9.894462111026e-14      -2.763318116142e-12       0.000000000000e+00       1.421937652315e-11       2.041028452615e-12      -9.454924468309e-15 
   93       3.825935410810e-10       1.012812643579e-13      -2.861535493371e-12       0.000000000000e+00       1.382735937696e-11       1.994821210669e-12      -9.248530558366e-15 
   94       3.871738858720e-10       1.036103144948e-13      -2.960286868148e-12       0.000000000000e+00       1.344805887018e-11       1.949906174141e-12      -9.063023038119e-15 
   95       3.917870201921e-10       1.059297444469e-13      -3.059508597202e-12       0.000000000000e+00       1.308154335077e-11       1.906305489639e-12      -8.897313986350e-15 
   96       3.964331351515e-10       1.082375017520e-13      -3.159136538471e-12       0.000000000000e+00       1.272776800938e-11       1.864029412517e-12      -8.750100959309e-15 
   97       4.011122454155e-10       1.105315092541e-13      -3.259106099444e-12       0.000000000000e+00       1.238657054861e-11       1.823075832358e-12      -8.619860130608e-15 
   98       4.058241812495e-10       1.128096657961e-13      -3.359352285507e-12       0.000000000000e+00       1.205766685217e-11       1.783429798444e-12      -8.504839431113e-15 
   99       4.105685805642e-10       1.150698469136e-13      -3.459809748280e-12       0.000000000000e+00       1.174064665409e-11       1.745063045240e-12      -8.403051688835e-15 
  100       4.153448809611e-10       1.173099055283e-13      -3.560412833961e-12       0.000000000000e+00       1.143496920791e-11       1.707933517862e-12      -8.312267768823e-15 
  101       4.201523117777e-10       1.195276726413e-13      -3.661095631668e-12       0.000000000000e+00       1.113995895591e-11       1.671984897561e-12      -8.230009713052e-15 
  102       4.249898861328e-10       1.217209580265e-13      -3.761792021779e-12       0.000000000000e+00       1.085480119827e-11       1.637146127194e-12      -8.153543880324e-15 
  103       4.298563929714e-10       1.238875509242e-13      -3.862435724276e-12       0.000000000000e+00       1.057853776230e-11       1.603330936705e-12      -8.079874086149e-15 
  104       4.347506474996e-10       1.260252556655e-13      -3.962957940086e-12       0.000000000000e+00       1.031028375296e-11       1.570458167583e-12      -8.006327180408e-15 
  105       4.396722981495e-10       1.281320025329e-13      -4.063279808123e-12       0.000000000000e+00       1.004992047867e-11       1.538516895144e-12      -7.932414644801e-15 
  106       4.446211143007e-10       1.302057532379e-13      -4.163319014683e-12       0.000000000000e+00       9.797488491628e-12       1.507509259624e-12      -7.858210851560e-15 
  107       4.495967325722e-10       1.322444683916e-13      -4.262992131078e-12       0.000000000000e+00       9.552972986704e-12       1.477430209767e-12      -7.783782736442e-15 
