# dimensionless total lensed [l(l+1)/2pi] C_l's
# for l=2 to 2500, i.e. number of multipoles equal to 2499
#
# -> if you prefer output in CAMB/HealPix/LensPix units/order, set 'format' to 'camb' in input file
# -> if you don't want to see such a header, set 'headers' to 'no' in input file
# -> for CMB lensing (phi), these are C_l^phi-phi for the lensing potential.
#    Remember the conversion factors:
#    C_l^dd (deflection) = l(l+1) C_l^phi-phi
#    C_l^gg (shear/convergence) = 1/4 (l(l+1))^2 C_l^phi-phi
#
# 1:l     2:TT                     3:EE                     4:TE                     5:BB                     6:phiphi                 7:TPhi                   8:Ephi               
    2       1.742734227799e-10       7.642670423900e-15       5.080213747360e-13       2.853624874472e-19       9.470062759908e-09       5.820796087364e-10      -2.716954091082e-12 
    3       1.629235333659e-10       1.193535957797e-14       6.231359122539e-13       5.709455115482e-19       5.865280453973e-09       4.125336919029e-10      -2.299395364214e-12 
    4       1.523573316347e-10       1.276013671910e-14       6.276997997831e-13       9.520588248965e-19       4.085954530914e-09       3.122747770144e-10      -1.743015416645e-12 
    5       1.442519944622e-10       1.069379489826e-14       5.718884060231e-13       1.428976957998e-18       3.050231857955e-09       2.466887069912e-10      -1.206770013214e-12 
    6       1.383998822266e-10       7.407651952435e-15       4.891617192279e-13       2.002026909552e-18       2.381927475248e-09       2.006862063339e-10      -7.438303493492e-13 
    7       1.343216205652e-10       4.424199673165e-15       4.015739806402e-13       2.671578301281e-18       1.920126575854e-09       1.668360646409e-10      -3.777103688464e-13 
    8       1.316669597284e-10       2.477315749048e-15       3.216463646133e-13       3.438032445595e-18       1.585065098351e-09       1.410943993142e-10      -1.142093640455e-13 
    9       1.300568738607e-10       1.548604953150e-15       2.560697791954e-13       4.301810746930e-18       1.333434172229e-09       1.210485764766e-10       5.271674435885e-14 
   10       1.292651999726e-10       1.237911216320e-15       2.076337610667e-13       5.263342881024e-18       1.139486453320e-09       1.051286940906e-10       1.372874823635e-13 
   11       1.290885573014e-10       1.138890669674e-15       1.762508180099e-13       6.323055202007e-18       9.631241516765e-10       9.257482787908e-11       1.580875945155e-13 
   12       1.293739563193e-10       1.033230760450e-15       1.598765452638e-13       7.481359814598e-18       8.413724852277e-10       8.182190033079e-11       1.367648843629e-13 
   13       1.300225664843e-10       8.908086397517e-16       1.553195035192e-13       8.738644718534e-18       7.414183644124e-10       7.286008538732e-11       9.200670578248e-14 
   14       1.309953210549e-10       7.687957257446e-16       1.589566594000e-13       1.009526538587e-17       6.582664508152e-10       6.546931251076e-11       4.021636547642e-14 
   15       1.321932531294e-10       7.147230606534e-16       1.673543498832e-13       1.155153807078e-17       5.882878706207e-10       5.904131138368e-11      -7.123241943012e-15 
   16       1.335548998987e-10       7.282070720516e-16       1.777420920124e-13       1.310773507853e-17       5.287910258862e-10       5.351514556167e-11      -4.244152888525e-14 
   17       1.350908292804e-10       7.765069205070e-16       1.882178836926e-13       1.476408213846e-17       4.777559391452e-10       4.875709206967e-11      -6.265184117670e-14 
   18       1.367720264656e-10       8.267033078336e-16       1.976384368966e-13       1.652075691634e-17       4.334656056785e-10       4.459767739051e-11      -6.834832576678e-14 
   19       1.385915163392e-10       8.766342127828e-16       2.058095254481e-13       1.837789578682e-17       3.952140403029e-10       4.095631761453e-11      -6.227069038924e-14 
   20       1.404884145073e-10       9.360426674555e-16       2.128854162761e-13       2.033558632766e-17       3.615287942082e-10       3.768545792774e-11      -4.904847469922e-14 
   21       1.424683957972e-10       1.021497787254e-15       2.193174852795e-13       2.239388780741e-17       3.318799347636e-10       3.476399024107e-11      -3.275001722214e-14 
   22       1.445223124776e-10       1.150622923970e-15       2.257228365022e-13       2.455282232477e-17       3.055564490182e-10       3.216591225360e-11      -1.769167119959e-14 
   23       1.466514622224e-10       1.322847557574e-15       2.325668014592e-13       2.681239946688e-17       2.821958346814e-10       2.986249706871e-11      -6.268480880178e-15 
   24       1.488358673980e-10       1.530278400584e-15       2.402196820060e-13       2.917260739041e-17       2.612577742394e-10       2.779440672213e-11      -6.425868034239e-17 
   25       1.510758826199e-10       1.768258025049e-15       2.486646762471e-13       3.163344186820e-17       2.424953419251e-10       2.593037992559e-11       9.845837810397e-16 
   26       1.533614343583e-10       2.032940866390e-15       2.576641621531e-13       3.419489544069e-17       2.255682772590e-10       2.423202932994e-11      -2.157073598687e-15 
   27       1.556956176250e-10       2.324790397293e-15       2.667924797388e-13       3.685698295765e-17       2.102735344390e-10       2.269122624558e-11      -7.926140949834e-15 
   28       1.580741242830e-10       2.645039441803e-15       2.755020552645e-13       3.961973452272e-17       1.963476085449e-10       2.129709763654e-11      -1.440173558265e-14 
   29       1.605036956723e-10       2.992399586590e-15       2.833476426742e-13       4.248322558953e-17       1.837190933175e-10       2.003858384799e-11      -2.037358184372e-14 
   30       1.629796801640e-10       3.364165610126e-15       2.898407395169e-13       4.544755916389e-17       1.722518874440e-10       1.888991757820e-11      -2.465686139840e-14 
   31       1.654858251248e-10       3.757960306442e-15       2.944966111658e-13       4.851286550531e-17       1.617115685456e-10       1.781615071747e-11      -2.614454089553e-14 
   32       1.680293412555e-10       4.176341800899e-15       2.972215447772e-13       5.167932351665e-17       1.520436350555e-10       1.681628336600e-11      -2.501352400178e-14 
   33       1.706160163384e-10       4.623999561773e-15       2.980740177990e-13       5.494715364432e-17       1.431798166528e-10       1.589448738858e-11      -2.199190813061e-14 
   34       1.732426816485e-10       5.105835597731e-15       2.971644256811e-13       5.831661236744e-17       1.349961233169e-10       1.504886870876e-11      -1.797549389279e-14 
   35       1.759077336465e-10       5.624164742597e-15       2.946379698913e-13       6.178797881994e-17       1.274504262648e-10       1.427379598825e-11      -1.370456598038e-14 
   36       1.786021649554e-10       6.180563612923e-15       2.906929700058e-13       6.536156944201e-17       1.204818077310e-10       1.355719324045e-11      -9.997642945897e-15 
   37       1.813125039695e-10       6.776418213246e-15       2.855315892665e-13       6.903772552464e-17       1.139991835972e-10       1.288404419392e-11      -7.640806685725e-15 
   38       1.840444295384e-10       7.412283757588e-15       2.791612307953e-13       7.281674674255e-17       1.079857263922e-10       1.225286384260e-11      -6.676202057080e-15 
   39       1.868056259922e-10       8.088290538358e-15       2.715290056682e-13       7.669893957061e-17       1.024223790093e-10       1.166396689125e-11      -6.878502919400e-15 
   40       1.895987175168e-10       8.804291120910e-15       2.625738365125e-13       8.068463729107e-17       9.725610501054e-11       1.111471047347e-11      -7.937609037226e-15 
   41       1.924227244718e-10       9.560077242916e-15       2.522096688015e-13       8.477416901127e-17       9.241835037180e-11       1.060072244771e-11      -9.484689599038e-15 
   42       1.952794014491e-10       1.035616080051e-14       2.402705727918e-13       8.896775045728e-17       8.789478122783e-11       1.012072011890e-11      -1.119518829933e-14 
   43       1.981679829777e-10       1.119321533393e-14       2.265463412952e-13       9.326556052121e-17       8.367325980180e-11       9.672803007640e-12      -1.270907275522e-14 
   44       2.010828895854e-10       1.207185958331e-14       2.107949774026e-13       9.766777037237e-17       7.972291481928e-11       9.252922903720e-12      -1.359775449205e-14 
   45       2.040171228304e-10       1.299264750225e-14       1.928003945986e-13       1.021745140898e-16       7.600514128749e-11       8.856272119676e-12      -1.348938127647e-14 
   46       2.069747027228e-10       1.395604099119e-14       1.725706402979e-13       1.067857913816e-16       7.251403367693e-11       8.482340280162e-12      -1.249847486373e-14 
   47       2.099611964541e-10       1.496242449892e-14       1.501956469232e-13       1.115015348504e-16       6.924550527704e-11       8.131082661315e-12      -1.091817401083e-14 
   48       2.129799885623e-10       1.601210865198e-14       1.257942078638e-13       1.163216341371e-16       6.618509619286e-11       7.801417854750e-12      -9.105720599274e-15 
   49       2.160320597511e-10       1.710532717897e-14       9.951547974842e-14       1.212459337129e-16       6.330720217788e-11       7.491148907729e-12      -7.486038769219e-15 
   50       2.191168352021e-10       1.824226973148e-14       7.150013426829e-14       1.262742299683e-16       6.058277712067e-11       7.197651353792e-12      -6.450422718287e-15 
   51       2.222355141141e-10       1.942319798494e-14       4.174789695363e-14       1.314062666679e-16       5.800669440793e-11       6.920340429289e-12      -6.011876602192e-15 
   52       2.253882616047e-10       2.064835573553e-14       1.021665006713e-14       1.366417344456e-16       5.557647948445e-11       6.658737240828e-12      -6.062407299033e-15 
   53       2.285730514077e-10       2.191793440434e-14      -2.314074661033e-14       1.419802692124e-16       5.328412174679e-11       6.411718650714e-12      -6.468414312349e-15 
   54       2.317854950212e-10       2.323207165097e-14      -5.837685235088e-14       1.474214499156e-16       5.111570213632e-11       6.177474506080e-12      -7.069332842461e-15 
   55       2.350208929806e-10       2.459081176271e-14      -9.554289362710e-14       1.529648443356e-16       4.905563017089e-11       5.954041312642e-12      -7.708323742148e-15 
   56       2.382813768175e-10       2.599397847508e-14      -1.346656358702e-13       1.586101649332e-16       4.710144078141e-11       5.741156490698e-12      -8.336379970980e-15 
   57       2.415702420561e-10       2.744126812875e-14      -1.757654607859e-13       1.643571477931e-16       4.525202102715e-11       5.538789839584e-12      -8.931705652090e-15 
   58       2.448897990934e-10       2.893228231262e-14      -2.188631268792e-13       1.702055076167e-16       4.350313409111e-11       5.346587581352e-12      -9.469829092599e-15 
   59       2.482412889228e-10       3.046652498822e-14      -2.639798875162e-13       1.761549373526e-16       4.184722646156e-11       5.163852048782e-12      -9.923494434860e-15 
   60       2.516247988592e-10       3.204339961392e-14      -3.111376089849e-13       1.822051078272e-16       4.027323511367e-11       4.989521373390e-12      -1.026255330771e-14 
   61       2.550399921365e-10       3.366228557289e-14      -3.603544924344e-13       1.883557350888e-16       3.876965441595e-11       4.822484035322e-12      -1.046370243342e-14 
   62       2.584886787276e-10       3.532279400930e-14      -4.116308504868e-13       1.946068009373e-16       3.733497749648e-11       4.662650969660e-12      -1.054249569180e-14 
   63       2.619726746500e-10       3.702456457562e-14      -4.649603330059e-13       2.009583814648e-16       3.596926705974e-11       4.510089157072e-12      -1.052835794156e-14 
   64       2.654929817183e-10       3.876719084397e-14      -5.203340204984e-13       2.074105854540e-16       3.467101485285e-11       4.364698501754e-12      -1.045557313678e-14 
   65       2.690497290916e-10       4.055021994666e-14      -5.777404026898e-13       2.139635561574e-16       3.343705227571e-11       4.226202144353e-12      -1.036348838291e-14 
   66       2.726421148221e-10       4.237315221671e-14      -6.371653571004e-13       2.206174730768e-16       3.226246099123e-11       4.094136774894e-12      -1.029671799271e-14 
   67       2.762683474025e-10       4.423544082838e-14      -6.985921276200e-13       2.273725537421e-16       3.114048353544e-11       3.967842945699e-12      -1.030534754229e-14 
   68       2.799265660774e-10       4.613639248498e-14      -7.619985118009e-13       2.342290467820e-16       3.006432484061e-11       3.846648279373e-12      -1.043203749242e-14 
   69       2.836179489771e-10       4.807484691815e-14      -8.273478088103e-13       2.411872055288e-16       2.903318050473e-11       3.730481853981e-12      -1.066984348558e-14 
   70       2.873441326614e-10       5.004943150253e-14      -8.945959903795e-13       2.482473122368e-16       2.804727503661e-11       3.619367478190e-12      -1.099617663686e-14 
   71       2.911062562592e-10       5.205865162410e-14      -9.636942386509e-13       2.554096878462e-16       2.710603872632e-11       3.513237142604e-12      -1.138501911369e-14 
   72       2.949049280496e-10       5.410088778996e-14      -1.034588853365e-12       2.626746935392e-16       2.620806661618e-11       3.411926266066e-12      -1.180679314238e-14 
   73       2.987401920411e-10       5.617439273807e-14      -1.107221159048e-12       2.700427322967e-16       2.535107747200e-11       3.315168941959e-12      -1.222823001460e-14 
   74       3.026114945530e-10       5.827728854705e-14      -1.181527412200e-12       2.775142504547e-16       2.453187275412e-11       3.222593184508e-12      -1.261223909389e-14 
   75       3.065176507946e-10       6.040756374597e-14      -1.257438708479e-12       2.850897392603e-16       2.374629558852e-11       3.133716175075e-12      -1.291777682215e-14 
   76       3.104574741881e-10       6.256323723131e-14      -1.334890899835e-12       2.927696549229e-16       2.299026068085e-11       3.048064660732e-12      -1.310920813964e-14 
   77       3.144318706979e-10       6.474289091574e-14      -1.413856638886e-12       3.005541584925e-16       2.226315157763e-11       2.965572005194e-12      -1.318665113479e-14 
   78       3.184420674697e-10       6.694522941073e-14      -1.494319036513e-12       3.084433311543e-16       2.156497124905e-11       2.886245241913e-12      -1.316095360754e-14 
   79       3.224889644604e-10       6.916892235796e-14      -1.576262280941e-12       3.164372514128e-16       2.089530734513e-11       2.810044193111e-12      -1.304475418018e-14 
   80       3.265731146089e-10       7.141260495956e-14      -1.659671750193e-12       3.245359949776e-16       2.025331312742e-11       2.736879282421e-12      -1.285254595350e-14 
   81       3.306947040061e-10       7.367487850845e-14      -1.744534124534e-12       3.327396346481e-16       1.963768840065e-11       2.666609347544e-12      -1.260074016294e-14 
   82       3.348535320651e-10       7.595431091862e-14      -1.830837498925e-12       3.410482401985e-16       1.904666044442e-11       2.599039452895e-12      -1.230772983466e-14 
   83       3.390489916922e-10       7.824943725541e-14      -1.918571495468e-12       3.494618782630e-16       1.847796494482e-11       2.533918702249e-12      -1.199395344171e-14 
   84       3.432804091945e-10       8.055869651492e-14      -2.007716455989e-12       3.579806262315e-16       1.792939505236e-11       2.471000906134e-12      -1.167824128908e-14 
   85       3.475481721874e-10       8.288022875872e-14      -2.098208714915e-12       3.666046168351e-16       1.740059490675e-11       2.410242931017e-12      -1.136601930494e-14 
   86       3.518527531831e-10       8.521204516427e-14      -2.189969748776e-12       3.753340007753e-16       1.689152986211e-11       2.351635374699e-12      -1.105925730585e-14 
   87       3.561943528970e-10       8.755208825246e-14      -2.282916514182e-12       3.841689334899e-16       1.640193541696e-11       2.295141520865e-12      -1.076001355965e-14 
   88       3.605728864642e-10       8.989823134648e-14      -2.376961376739e-12       3.931095752730e-16       1.593130769425e-11       2.240696208121e-12      -1.047043596645e-14 
   89       3.649879696556e-10       9.224827803064e-14      -2.472012039981e-12       4.021560913957e-16       1.547889392133e-11       2.188204699019e-12      -1.019276323963e-14 
   90       3.694389050946e-10       9.459996160927e-14      -2.567971474280e-12       4.113086522268e-16       1.504368291000e-11       2.137541549097e-12      -9.929326086797e-15 
   91       3.739246684728e-10       9.695094456549e-14      -2.664737845778e-12       4.205674333532e-16       1.462439553649e-11       2.088549475902e-12      -9.682548390792e-15 
   92       3.784438947673e-10       9.929881802012e-14      -2.762204445305e-12       4.299326157002e-16       1.421947522144e-11       2.041038228025e-12      -9.454948390662e-15 
   93       3.829952887107e-10       1.016411918447e-13      -2.860268338546e-12       4.394044811278e-16       1.382745644138e-11       1.994831279223e-12      -9.248554068069e-15 
   94       3.875789567613e-10       1.039759816792e-13      -2.958857959134e-12       4.489837154024e-16       1.344815434047e-11       1.949916400692e-12      -9.063046162672e-15 
   95       3.921952509092e-10       1.063011642822e-13      -3.057909553458e-12       4.586711512265e-16       1.308163726743e-11       1.906315749200e-12      -8.897336750092e-15 
   96       3.968443544183e-10       1.086146914167e-13      -3.157358877170e-12       4.684676782359e-16       1.272786041326e-11       1.864039591684e-12      -8.750123382955e-15 
   97       4.015262738657e-10       1.109144905533e-13      -3.257141243827e-12       4.783742444305e-16       1.238666148044e-11       1.823085830766e-12      -8.619882230773e-15 
   98       4.062408311826e-10       1.131984655739e-13      -3.357191573527e-12       4.883918576058e-16       1.205775635209e-11       1.783439530273e-12      -8.504861219820e-15 
   99       4.109876556936e-10       1.154644974742e-13      -3.457444441546e-12       4.985215867835e-16       1.174073476114e-11       1.745072440757e-12      -8.403073173012e-15 
  100       4.157661761571e-10       1.177104450677e-13      -3.557834126974e-12       5.087645636430e-16       1.143505595956e-11       1.707942525012e-12      -8.312288949780e-15 
  101       4.205756128053e-10       1.199341456884e-13      -3.658294661355e-12       5.191219839524e-16       1.114004438749e-11       1.671993483589e-12      -8.230030585954e-15 
  102       4.254149693839e-10       1.221334158944e-13      -3.758759877321e-12       5.295951089997e-16       1.085488534245e-11       1.637154280323e-12      -8.153564433636e-15 
  103       4.302830251928e-10       1.243060521709e-13      -3.859163457232e-12       5.401852670235e-16       1.057862064851e-11       1.603338667841e-12      -8.079894301079e-15 
  104       4.351785862468e-10       1.264498665515e-13      -3.959436565197e-12       5.508937374492e-16       1.031036540767e-11       1.570465507909e-12      -8.006347032554e-15 
  105       4.401012945446e-10       1.285627974471e-13      -4.059500274081e-12       5.617213827026e-16       1.005000092829e-11       1.538523880610e-12      -7.932434112793e-15 
  106       4.450509137901e-10       1.306428151693e-13      -4.159272201407e-12       5.726689690959e-16       9.797567763034e-12       1.507515926837e-12      -7.858229919635e-15 
  107       4.500270749818e-10       1.326878894229e-13      -4.258668856437e-12       5.837372797235e-16       9.553051107076e-12       1.477436595886e-12      -7.783801394883e-15 
