# dimensionless total [l(l+1)/2pi] C_l's
# for l=2 to 3000, i.e. number of multipoles equal to 2999
#
# -> if you prefer output in CAMB/HealPix/LensPix units/order, set 'format' to 'camb' in input file
# -> if you don't want to see such a header, set 'headers' to 'no' in input file
# -> for CMB lensing (phi), these are C_l^phi-phi for the lensing potential.
#    Remember the conversion factors:
#    C_l^dd (deflection) = l(l+1) C_l^phi-phi
#    C_l^gg (shear/convergence) = 1/4 (l(l+1))^2 C_l^phi-phi
#
# 1:l     2:TT                     3:EE                     4:TE                     5:BB                     6:phiphi                 7:TPhi                   8:Ephi               
    2       1.742730988413e-10       7.642398892928e-15       5.080225076794e-13       0.000000000000e+00       9.470087850913e-09       5.820800500556e-10      -2.716957177876e-12 
    3       1.629226162215e-10       1.193481059194e-14       6.231372448181e-13       0.000000000000e+00       5.865297570028e-09       4.125340996536e-10      -2.299398008757e-12 
    4       1.523556202952e-10       1.275920890052e-14       6.277011555215e-13       0.000000000000e+00       4.085966012072e-09       3.122751401456e-10      -1.743017487531e-12 
    5       1.442492988622e-10       1.069238711415e-14       5.718897206512e-13       0.000000000000e+00       3.050239054730e-09       2.466890278319e-10      -1.206771537400e-12 
    6       1.383960172128e-10       7.405665303208e-15       4.891630087033e-13       0.000000000000e+00       2.381932259604e-09       2.006864861390e-10      -7.438314105209e-13 
    7       1.343164066035e-10       4.421537593734e-15       4.015753234663e-13       0.000000000000e+00       1.920130273426e-09       1.668363089194e-10      -3.777110556893e-13 
    8       1.316602243202e-10       2.473882899795e-15       3.216479067123e-13       0.000000000000e+00       1.585068266728e-09       1.410946200377e-10      -1.142097373819e-13 
    9       1.300484464856e-10       1.544305995543e-15       2.560717335079e-13       0.000000000000e+00       1.333437002124e-09       1.210487823094e-10       5.271664674792e-14 
   10       1.292549198776e-10       1.232649970843e-15       2.076363779212e-13       0.000000000000e+00       1.139489030851e-09       1.051288833936e-10       1.372876172195e-13 
   11       1.290762695009e-10       1.132569694069e-15       1.762543654787e-13       0.000000000000e+00       9.631260957838e-10       9.257498217500e-11       1.580878869018e-13 
   12       1.293595118733e-10       1.025751426062e-15       1.598813038483e-13       0.000000000000e+00       8.413742209722e-10       8.182203364685e-11       1.367652498412e-13 
   13       1.300058240304e-10       8.820715702351e-16       1.553257829872e-13       0.000000000000e+00       7.414199247755e-10       7.286020358682e-11       9.200705936999e-14 
   14       1.309761406656e-10       7.587011901681e-16       1.589647934575e-13       0.000000000000e+00       6.582678619150e-10       6.546941916099e-11       4.021664589242e-14 
   15       1.321714921628e-10       7.031712245328e-16       1.673646828556e-13       0.000000000000e+00       5.882891536703e-10       5.904140781607e-11      -7.123066738754e-15 
   16       1.335304286415e-10       7.150981089912e-16       1.777550114914e-13       0.000000000000e+00       5.287921982563e-10       5.351523519481e-11      -4.244146600743e-14 
   17       1.350635207426e-10       7.617408351323e-16       1.882338239274e-13       0.000000000000e+00       4.777570151886e-10       4.875717737090e-11      -6.265187976540e-14 
   18       1.367417503953e-10       8.101797096564e-16       1.976578322590e-13       0.000000000000e+00       4.334665969789e-10       4.459775434895e-11      -6.834844162179e-14 
   19       1.385581491540e-10       8.582526347445e-16       2.058328478612e-13       0.000000000000e+00       3.952149577667e-10       4.095638378065e-11      -6.227085164808e-14 
   20       1.404518419798e-10       9.157027492420e-16       2.129131899599e-13       0.000000000000e+00       3.615296459555e-10       3.768551563308e-11      -4.904864607684e-14 
   21       1.424285039572e-10       9.990992759744e-16       2.193502560166e-13       0.000000000000e+00       3.318807280820e-10       3.476404289891e-11      -3.275016890141e-14 
   22       1.444789839435e-10       1.126065711169e-15       2.257611560307e-13       0.000000000000e+00       3.055571900416e-10       3.216596257402e-11      -1.769178476838e-14 
   23       1.466045793241e-10       1.296031662382e-15       2.326112206794e-13       0.000000000000e+00       2.821965289576e-10       2.986254527282e-11      -6.268550052513e-15 
   24       1.487853137821e-10       1.501104025591e-15       2.402707514296e-13       0.000000000000e+00       2.612584263249e-10       2.779445048081e-11      -6.429022092423e-17 
   25       1.510215475921e-10       1.736625739852e-15       2.487229801803e-13       0.000000000000e+00       2.424959559244e-10       2.593041944382e-11       9.845776618415e-16 
   26       1.533032140726e-10       1.998751714498e-15       2.577303293360e-13       0.000000000000e+00       2.255688566167e-10       2.423206831289e-11      -2.157068831843e-15 
   27       1.556334110171e-10       2.287945889204e-15       2.668671661023e-13       0.000000000000e+00       2.102740822416e-10       2.269126616690e-11      -7.926138212459e-15 
   28       1.580078316843e-10       2.605441581626e-15       2.755859367828e-13       0.000000000000e+00       1.963481273995e-10       2.129713623356e-11      -1.440174411295e-14 
   29       1.604332191466e-10       2.949950843462e-15       2.834414081362e-13       0.000000000000e+00       1.837195857218e-10       2.003861909590e-11      -2.037360684203e-14 
   30       1.629049234291e-10       3.318768935591e-15       2.899450858937e-13       0.000000000000e+00       1.722523556411e-10       1.888994922128e-11      -2.465690287697e-14 
   31       1.654066935209e-10       3.709519170762e-15       2.946122418368e-13       0.000000000000e+00       1.617120143163e-10       1.781618027583e-11      -2.614459355002e-14 
   32       1.679457425056e-10       4.124760229634e-15       2.973491742991e-13       0.000000000000e+00       1.520440600915e-10       1.681631230231e-11      -2.501358196467e-14 
   33       1.705278608300e-10       4.569182170829e-15       2.982143724579e-13       0.000000000000e+00       1.431802225243e-10       1.589451641552e-11      -2.199196668464e-14 
   34       1.731498826056e-10       5.047687621089e-15       2.973182398904e-13       0.000000000000e+00       1.349965113522e-10       1.504889773713e-11      -1.797554975698e-14 
   35       1.758102075788e-10       5.562592037688e-15       2.948059741351e-13       0.000000000000e+00       1.274507977215e-10       1.427382471466e-11      -1.370461687389e-14 
   36       1.784998319629e-10       6.115472678391e-15       2.908758839267e-13       0.000000000000e+00       1.204821637529e-10       1.355722131099e-11      -9.997687664919e-15 
   37       1.812052878278e-10       6.707716224531e-15       2.857301165829e-13       0.000000000000e+00       1.139995251476e-10       1.288407122343e-11      -7.640845210137e-15 
   38       1.839322572089e-10       7.339878648306e-15       2.793760537723e-13       0.000000000000e+00       1.079860544117e-10       1.225288951724e-11      -6.676235036515e-15 
   39       1.866884275392e-10       8.012091049877e-15       2.717607794255e-13       0.000000000000e+00       1.024226944084e-10       1.166399101711e-11      -6.878531592251e-15 
   40       1.894764261902e-10       8.724206839307e-15       2.628231830984e-13       0.000000000000e+00       9.725640859360e-11       1.111473300528e-11      -7.937635322070e-15 
   41       1.922952768594e-10       9.476018670379e-15       2.524771692989e-13       0.000000000000e+00       9.241864280175e-11       1.060074348568e-11      -9.484715942521e-15 
   42       1.951467378452e-10       1.026803954417e-14       2.405567534180e-13       0.000000000000e+00       8.789506314473e-11       1.012073979308e-11      -1.119521668652e-14 
   43       1.980300476201e-10       1.110094421508e-14       2.268516630848e-13       0.000000000000e+00       8.367353182621e-11       9.672821441137e-12      -1.270910429292e-14 
   44       2.009396308482e-10       1.197535271723e-14       2.111198270252e-13       0.000000000000e+00       7.972317750910e-11       9.252940205989e-12      -1.359778920482e-14 
   45       2.038684931123e-10       1.289182041996e-14       1.931450750983e-13       0.000000000000e+00       7.600539511982e-11       8.856288386019e-12      -1.348941814357e-14 
   46       2.068206572792e-10       1.385081089640e-14       1.729353625044e-13       0.000000000000e+00       7.251427912217e-11       8.482355613336e-12      -1.249851269345e-14 
   47       2.098016929908e-10       1.485271043381e-14       1.505805197184e-13       0.000000000000e+00       6.924574280234e-11       8.131097176765e-12      -1.091821170693e-14 
   48       2.128149871135e-10       1.589783163122e-14       1.261992277798e-13       0.000000000000e+00       6.618532623760e-11       7.801431679553e-12      -9.105757198185e-15 
   49       2.158615225516e-10       1.698641032815e-14       9.994052018817e-14       0.000000000000e+00       6.330742512738e-11       7.491162179407e-12      -7.486073479644e-15 
   50       2.189407265566e-10       1.811863845076e-14       7.194493756187e-14       0.000000000000e+00       6.058299329765e-11       7.197664215126e-12      -6.450454962434e-15 
   51       2.220538002680e-10       1.929478018651e-14       4.221207670553e-14       0.000000000000e+00       5.800690412769e-11       6.920353010146e-12      -6.011906057362e-15 
   52       2.252009106037e-10       2.051508203496e-14       1.069968535300e-14       0.000000000000e+00       5.557668306048e-11       6.658749649229e-12      -6.062433942962e-15 
   53       2.283800329486e-10       2.177973829818e-14      -2.263952023728e-14       0.000000000000e+00       5.328431947716e-11       6.411730967169e-12      -6.468438471383e-15 
   54       2.315867802977e-10       2.308888969973e-14      -5.785825208005e-14       0.000000000000e+00       5.111589428915e-11       6.177486777612e-12      -7.069355242009e-15 
   55       2.348164546843e-10       2.444258370700e-14      -9.500789427940e-14       0.000000000000e+00       4.905581698007e-11       5.954053553066e-12      -7.708345443738e-15 
   56       2.380711896656e-10       2.584064711937e-14      -1.341153600145e-13       0.000000000000e+00       4.710162247823e-11       5.741168702173e-12      -8.336401930886e-15 
   57       2.413542829133e-10       2.728277940921e-14      -1.752011803547e-13       0.000000000000e+00       4.525219784326e-11       5.538802017637e-12      -8.931728568373e-15 
   58       2.446680469438e-10       2.876858543486e-14      -2.182862690687e-13       0.000000000000e+00       4.350330625062e-11       5.346599713751e-12      -9.469853357415e-15 
   59       2.480137248427e-10       3.029757256750e-14      -2.633920407349e-13       0.000000000000e+00       4.184739417263e-11       5.163864114355e-12      -9.923520084542e-15 
   60       2.513914059900e-10       3.186914781807e-14      -3.105405288512e-13       0.000000000000e+00       4.027339855957e-11       4.989533340788e-12      -1.026257997063e-14 
   61       2.548007559920e-10       3.348269409746e-14      -3.597501032501e-13       0.000000000000e+00       3.876981375378e-11       4.822495865467e-12      -1.046372938024e-14 
   62       2.582435885899e-10       3.513782549970e-14      -4.110212318428e-13       0.000000000000e+00       3.733513288194e-11       4.662662630307e-12      -1.054252222489e-14 
   63       2.617217241232e-10       3.683418448222e-14      -4.643477179896e-13       0.000000000000e+00       3.596941865078e-11       4.510100627890e-12      -1.052838351774e-14 
   64       2.652361689805e-10       3.857136743379e-14      -5.197207980860e-13       0.000000000000e+00       3.467116280551e-11       4.364709775984e-12      -1.045559739327e-14 
   65       2.687870571587e-10       4.034892431230e-14      -5.771291200417e-13       0.000000000000e+00       3.343719673972e-11       4.226213230527e-12      -1.036351116437e-14 
   66       2.723735918222e-10       4.216635828248e-14      -6.365587217607e-13       0.000000000000e+00       3.226260210530e-11       4.094147698617e-12      -1.029673937935e-14 
   67       2.759939868616e-10       4.402312535361e-14      -6.979930096202e-13       0.000000000000e+00       3.114062142238e-11       3.967853751500e-12      -1.030536787909e-14 
   68       2.796463871727e-10       4.591853491292e-14      -7.614099483664e-13       0.000000000000e+00       3.006445960711e-11       3.846659027572e-12      -1.043205735387e-14 
   69       2.833319766616e-10       4.785142873149e-14      -8.267730177049e-13       0.000000000000e+00       2.903331225686e-11       3.730492601286e-12      -1.066986342938e-14 
   70       2.870523979111e-10       4.982043596683e-14      -8.940383761981e-13       0.000000000000e+00       2.804740388239e-11       3.619378271364e-12      -1.099619712764e-14 
   71       2.908087963713e-10       5.182406366748e-14      -9.631573965398e-13       0.000000000000e+00       2.710616477346e-11       3.513248016833e-12      -1.138504050800e-14 
   72       2.946017869496e-10       5.386069387604e-14      -1.034076572716e-12       0.000000000000e+00       2.620818996977e-11       3.411937243261e-12      -1.180681567303e-14 
   73       2.984314206013e-10       5.592858073233e-14      -1.106737427166e-12       0.000000000000e+00       2.535119823197e-11       3.315180028993e-12      -1.222825377448e-14 
   74       3.022971509197e-10       5.802584757647e-14      -1.181076417939e-12       0.000000000000e+00       2.453199101269e-11       3.222604371385e-12      -1.261226401918e-14 
   75       3.061978007262e-10       6.015048405195e-14      -1.257024845858e-12       0.000000000000e+00       2.374641142751e-11       3.133727433046e-12      -1.291780267492e-14 
   76       3.101321907840e-10       6.230051008126e-14      -1.334518772977e-12       0.000000000000e+00       2.299037417176e-11       3.048075944008e-12      -1.310923453097e-14 
   77       3.141012321504e-10       6.447450871751e-14      -1.413531071277e-12       0.000000000000e+00       2.226326279123e-11       2.965583264404e-12      -1.318667767907e-14 
   78       3.181061564491e-10       6.667118564920e-14      -1.494045076682e-12       0.000000000000e+00       2.156508025701e-11       2.886256427856e-12      -1.316097996853e-14 
   79       3.221478680841e-10       6.888921146437e-14      -1.576045206863e-12       0.000000000000e+00       2.089541421880e-11       2.810055257034e-12      -1.304478007842e-14 
   80       3.262269244075e-10       7.112722217558e-14      -1.659517073683e-12       0.000000000000e+00       2.025341793653e-11       2.736890176312e-12      -1.285257117398e-14 
   81       3.303435158872e-10       7.338381974481e-14      -1.744447595647e-12       0.000000000000e+00       1.963779121196e-11       2.666620024431e-12      -1.260076456297e-14 
   82       3.344974462741e-10       7.565757260847e-14      -1.830825110357e-12       0.000000000000e+00       1.904676132031e-11       2.599049867161e-12      -1.230775335211e-14 
   83       3.386881127704e-10       7.794701620232e-14      -1.918639486955e-12       0.000000000000e+00       1.847806394185e-11       2.533928809955e-12      -1.199397610339e-14 
   84       3.429148459928e-10       8.025058978158e-14      -2.007871308501e-12       0.000000000000e+00       1.792949222136e-11       2.471010666146e-12      -1.167826320129e-14 
   85       3.471780380618e-10       8.256643369714e-14      -2.098457112263e-12       0.000000000000e+00       1.740069029827e-11       2.410252308656e-12      -1.136604058620e-14 
   86       3.514781660337e-10       8.489255931828e-14      -2.190318566385e-12       0.000000000000e+00       1.689162352732e-11       2.351644343309e-12      -1.105927806831e-14 
   87       3.558154351499e-10       8.722690921171e-14      -2.283372817413e-12       0.000000000000e+00       1.640202740696e-11       2.295150062652e-12      -1.076003390772e-14 
   88       3.601897650515e-10       8.956735659596e-14      -2.377532419052e-12       0.000000000000e+00       1.593139805928e-11       2.240704315015e-12      -1.047045599541e-14 
   89       3.646007759935e-10       9.191170479555e-14      -2.472705260913e-12       0.000000000000e+00       1.547898271006e-11       2.188212373565e-12      -1.019278303419e-14 
   90       3.690477750603e-10       9.425768669537e-14      -2.568794497269e-12       0.000000000000e+00       1.504377016867e-11       2.137548805365e-12      -9.929345719613e-15 
   91       3.735297423793e-10       9.660296419490e-14      -2.665698475801e-12       0.000000000000e+00       1.462448130810e-11       2.088556340424e-12      -9.682567920912e-15 
   92       3.780453173362e-10       9.894512766255e-14      -2.763310666352e-12       0.000000000000e+00       1.421955954492e-11       2.041044740759e-12      -9.454967861960e-15 
   93       3.825932095349e-10       1.012817856591e-13      -2.861528302025e-12       0.000000000000e+00       1.382753935175e-11       1.994837491871e-12      -9.248573509861e-15 
   94       3.871735323222e-10       1.036108507301e-13      -2.960279943867e-12       0.000000000000e+00       1.344823587271e-11       1.949922366588e-12      -9.063065597438e-15 
   95       3.917866452708e-10       1.059302957874e-13      -3.059501949478e-12       0.000000000000e+00       1.308171745715e-11       1.906321520401e-12      -8.897356195084e-15 
   96       3.964327394560e-10       1.082380683546e-13      -3.159130177745e-12       0.000000000000e+00       1.272793929634e-11       1.864045218601e-12      -8.750142849635e-15 
   97       4.011118295005e-10       1.105320912599e-13      -3.259100037191e-12       0.000000000000e+00       1.238673909260e-11       1.823091361788e-12      -8.619901724229e-15 
   98       4.058237456196e-10       1.128102633295e-13      -3.359346534320e-12       0.000000000000e+00       1.205783272851e-11       1.783445011373e-12      -8.504880738170e-15 
   99       4.105681256663e-10       1.150704600815e-13      -3.459804321956e-12       0.000000000000e+00       1.174080993603e-11       1.745077915089e-12      -8.403092706792e-15 
  100       4.153444071760e-10       1.173105344187e-13      -3.560407747591e-12       0.000000000000e+00       1.143512996569e-11       1.707948032494e-12      -8.312308481314e-15 
  101       4.201518194119e-10       1.195283173223e-13      -3.661090901730e-12       0.000000000000e+00       1.114011725576e-11       1.671999060479e-12      -8.230050088710e-15 
  102       4.249893754098e-10       1.217216185453e-13      -3.761787666232e-12       0.000000000000e+00       1.085495710139e-11       1.637159958773e-12      -8.153583871565e-15 
  103       4.298558640232e-10       1.238882273059e-13      -3.862431762654e-12       0.000000000000e+00       1.057869132381e-11       1.603344475453e-12      -8.079913627939e-15 
  104       4.347501003749e-10       1.260259479152e-13      -3.962954392992e-12       0.000000000000e+00       1.031043502239e-11       1.570471467280e-12      -8.006366193932e-15 
  105       4.396717328767e-10       1.281327106486e-13      -4.063276694809e-12       0.000000000000e+00       1.005006950540e-11       1.538530008927e-12      -7.932453056701e-15 
  106       4.446205309034e-10       1.302064772142e-13      -4.163316352283e-12       0.000000000000e+00       9.797635325920e-12       1.507522235410e-12      -7.858248599662e-15 
  107       4.495961310678e-10       1.322452082199e-13      -4.262989934426e-12       0.000000000000e+00       9.553117679333e-12       1.477443089657e-12      -7.783819770755e-15 
