# dimensionless total [l(l+1)/2pi] C_l's
# for l=2 to 3000, i.e. number of multipoles equal to 2999
#
# -> if you prefer output in CAMB/HealPix/LensPix units/order, set 'format' to 'camb' in input file
# -> if you don't want to see such a header, set 'headers' to 'no' in input file
# -> for CMB lensing (phi), these are C_l^phi-phi for the lensing potential.
#    Remember the conversion factors:
#    C_l^dd (deflection) = l(l+1) C_l^phi-phi
#    C_l^gg (shear/convergence) = 1/4 (l(l+1))^2 C_l^phi-phi
#
# 1:l     2:TT                     3:EE                     4:TE                     5:BB                     6:phiphi                 7:TPhi                   8:Ephi               
    2       1.742763022630e-10       7.642851103751e-15       5.080513132213e-13       0.000000000000e+00       9.460017096587e-09       5.821227117829e-10      -2.716983661595e-12 
    3       1.629241248552e-10       1.193538468607e-14       6.231552660698e-13       0.000000000000e+00       5.865078418805e-09       4.126001103660e-10      -2.299462119701e-12 
    4       1.523567282862e-10       1.275987387897e-14       6.277233312151e-13       0.000000000000e+00       4.085733935217e-09       3.123134161562e-10      -1.743058081295e-12 
    5       1.442501010479e-10       1.069294856295e-14       5.719107424579e-13       0.000000000000e+00       3.050338164040e-09       2.467122350287e-10      -1.206813235470e-12 
    6       1.383963714279e-10       7.406054829472e-15       4.891821506487e-13       0.000000000000e+00       2.382365893434e-09       2.007012911916e-10      -7.438592407863e-13 
    7       1.343169494194e-10       4.421767283881e-15       4.015913459086e-13       0.000000000000e+00       1.920581194127e-09       1.668480131462e-10      -3.777294393979e-13 
    8       1.316613823193e-10       2.474000557961e-15       3.216607265877e-13       0.000000000000e+00       1.585447003150e-09       1.411061540933e-10      -1.142214952810e-13 
    9       1.300490189395e-10       1.544358289929e-15       2.560820796726e-13       0.000000000000e+00       1.333925146803e-09       1.210622826579e-10       5.270878911478e-14 
   10       1.292557271188e-10       1.232668365713e-15       2.076443891420e-13       0.000000000000e+00       1.139946113713e-09       1.051394669249e-10       1.372813038786e-13 
   11       1.290763055448e-10       1.132572930889e-15       1.762604566619e-13       0.000000000000e+00       9.632007205972e-10       9.258071658346e-11       1.580814817605e-13 
   12       1.293603882187e-10       1.025753440648e-15       1.598867926911e-13       0.000000000000e+00       8.414416992101e-10       8.182872525363e-11       1.367576218244e-13 
   13       1.300065208668e-10       8.820846941397e-16       1.553320401297e-13       0.000000000000e+00       7.414813175758e-10       7.286726941928e-11       9.199859598913e-14 
   14       1.309769893847e-10       7.587338319402e-16       1.589720201545e-13       0.000000000000e+00       6.583240120229e-10       6.547439264585e-11       4.020797667689e-14 
   15       1.321711781720e-10       7.032257228721e-16       1.673729230138e-13       0.000000000000e+00       5.883407604424e-10       5.904415721442e-11      -7.131558271914e-15 
   16       1.335305788212e-10       7.151711111198e-16       1.777649759240e-13       0.000000000000e+00       5.288398073512e-10       5.351847648558e-11      -4.244908938191e-14 
   17       1.350640101210e-10       7.618267369136e-16       1.882453997687e-13       0.000000000000e+00       4.778011016882e-10       4.876218897199e-11      -6.265796344996e-14 
   18       1.367423876349e-10       8.102755036440e-16       1.976710134817e-13       0.000000000000e+00       4.335074443230e-10       4.460248993994e-11      -6.835254946439e-14 
   19       1.385588165676e-10       8.583587153033e-16       2.058477022531e-13       0.000000000000e+00       3.952531248509e-10       4.095945081095e-11      -6.227319792385e-14 
   20       1.404522437985e-10       9.158231894656e-16       2.129297004270e-13       0.000000000000e+00       3.615653345613e-10       3.768763931610e-11      -4.905015105392e-14 
   21       1.424286360440e-10       9.992393580317e-16       2.193683081272e-13       0.000000000000e+00       3.319141176960e-10       3.476621586415e-11      -3.275131503079e-14 
   22       1.444791988128e-10       1.126230907778e-15       2.257805632658e-13       0.000000000000e+00       3.055885110680e-10       3.216868637023e-11      -1.769230182905e-14 
   23       1.466047708556e-10       1.296226973714e-15       2.326319192949e-13       0.000000000000e+00       2.822259943632e-10       2.986555406011e-11      -6.268538206300e-15 
   24       1.487847850288e-10       1.501333603776e-15       2.402928395815e-13       0.000000000000e+00       2.612861888306e-10       2.779679576495e-11      -6.451816401104e-17 
   25       1.510201693566e-10       1.736893178960e-15       2.487464437770e-13       0.000000000000e+00       2.425221558950e-10       2.593195490939e-11       9.834949218862e-16 
   26       1.533016901962e-10       1.999060276356e-15       2.577549727322e-13       0.000000000000e+00       2.255936219290e-10       2.423376679120e-11      -2.159151110645e-15 
   27       1.556321506198e-10       2.288299650643e-15       2.668928235763e-13       0.000000000000e+00       2.102975287016e-10       2.269360998442e-11      -7.928982258531e-15 
   28       1.580066303070e-10       2.605845585512e-15       2.756125267488e-13       0.000000000000e+00       1.963703506890e-10       2.129966965362e-11      -1.440478490508e-14 
   29       1.604318411155e-10       2.950409538615e-15       2.834688062926e-13       0.000000000000e+00       1.837406789297e-10       2.004085029263e-11      -2.037630418011e-14 
   30       1.629033115710e-10       3.319285447285e-15       2.899730738675e-13       0.000000000000e+00       1.722724045945e-10       1.889168169293e-11      -2.465889099179e-14 
   31       1.654049630679e-10       3.710095470054e-15       2.946405172398e-13       0.000000000000e+00       1.617310892344e-10       1.781753569878e-11      -2.614573129057e-14 
   32       1.679439552264e-10       4.125399284514e-15       2.973774681710e-13       0.000000000000e+00       1.520622285305e-10       1.681749272942e-11      -2.501394258177e-14 
   33       1.705259346337e-10       4.569888894638e-15       2.982425017587e-13       0.000000000000e+00       1.431975472593e-10       1.589573143104e-11      -2.199187247205e-14 
   34       1.731476022810e-10       5.048468726318e-15       2.973461596516e-13       0.000000000000e+00       1.350130454327e-10       1.505033998994e-11      -1.797553230653e-14 
   35       1.758073988888e-10       5.563453743977e-15       2.948339175634e-13       0.000000000000e+00       1.274665918826e-10       1.427558199081e-11      -1.370505191433e-14 
   36       1.784964309350e-10       6.116419797327e-15       2.909044519246e-13       0.000000000000e+00       1.204972647635e-10       1.355922646355e-11      -9.998636000491e-15 
   37       1.812013488195e-10       6.708752284804e-15       2.857601731165e-13       0.000000000000e+00       1.140139730171e-10       1.288610979654e-11      -7.642060670114e-15 
   38       1.839278916683e-10       7.341007741450e-15       2.794080189261e-13       0.000000000000e+00       1.079998886073e-10       1.225475641977e-11      -6.677470475862e-15 
   39       1.866837906367e-10       8.013318526863e-15       2.717943169347e-13       0.000000000000e+00       1.024359534159e-10       1.166554732841e-11      -6.879644113649e-15 
   40       1.894717223445e-10       8.725539567639e-15       2.628570358652e-13       0.000000000000e+00       9.726912669614e-11       1.111592446721e-11      -7.938614073603e-15 
   41       1.922907342310e-10       9.477464745017e-15       2.525093159219e-13       0.000000000000e+00       9.243084856168e-11       1.060160142933e-11      -9.485675536119e-15 
   42       1.951424769805e-10       1.026960610686e-14       2.405856780762e-13       0.000000000000e+00       8.790678435839e-11       1.012131951074e-11      -1.119626958098e-14 
   43       1.980260219073e-10       1.110263657697e-14       2.268768572543e-13       0.000000000000e+00       8.368479562673e-11       9.673184837082e-12      -1.271031791838e-14 
   44       2.009355934146e-10       1.197717396889e-14       2.111420035152e-13       0.000000000000e+00       7.973400850942e-11       9.253155443730e-12      -1.359917527912e-14 
   45       2.038640252710e-10       1.289377165635e-14       1.931660229088e-13       0.000000000000e+00       7.601581461479e-11       8.856427077172e-12      -1.349093818673e-14 
   46       2.068154080162e-10       1.385289355840e-14       1.729565667016e-13       0.000000000000e+00       7.252430820350e-11       8.482481886267e-12      -1.250013943068e-14 
   47       2.097954672925e-10       1.485492712808e-14       1.506026683001e-13       0.000000000000e+00       6.925540247201e-11       8.131262342881e-12      -1.091995019474e-14 
   48       2.128077780531e-10       1.590018638184e-14       1.262220494418e-13       0.000000000000e+00       6.619463633174e-11       7.801670902309e-12      -9.107650875165e-15 
   49       2.158535451409e-10       1.698890884269e-14       9.996261316107e-14       0.000000000000e+00       6.331640315789e-11       7.491490949129e-12      -7.488210542376e-15 
   50       2.189323887698e-10       1.812128799184e-14       7.196394073195e-14       0.000000000000e+00       6.059165407594e-11       7.198078745598e-12      -6.452958004138e-15 
   51       2.220454613821e-10       1.929758809989e-14       4.222599783876e-14       0.000000000000e+00       5.801526217562e-11       6.920844105934e-12      -6.014865383982e-15 
   52       2.251927975430e-10       2.051805528135e-14       1.070737086270e-14       0.000000000000e+00       5.558475284855e-11       6.659306423093e-12      -6.065882485893e-15 
   53       2.283722149324e-10       2.178288335748e-14      -2.263823186894e-14       0.000000000000e+00       5.329211482395e-11       6.412340760624e-12      -6.472341960240e-15 
   54       2.315791422128e-10       2.309221247049e-14      -5.786236928263e-14       0.000000000000e+00       5.112342771929e-11       6.178135081003e-12      -7.073601899707e-15 
   55       2.348087149197e-10       2.444608939516e-14      -9.501539661584e-14       0.000000000000e+00       4.906309953035e-11       5.954724380667e-12      -7.712755632921e-15 
   56       2.380630671869e-10       2.584434010284e-14      -1.341242785106e-13       0.000000000000e+00       4.710866507391e-11       5.741846465876e-12      -8.340804552825e-15 
   57       2.413455499389e-10       2.728666311222e-14      -1.752099459303e-13       0.000000000000e+00       4.525901142153e-11       5.539472273470e-12      -8.935986455431e-15 
   58       2.446585396298e-10       2.877266220268e-14      -2.182937926686e-13       0.000000000000e+00       4.350990140648e-11       5.347249502375e-12      -9.473870000660e-15 
   59       2.480033544751e-10       3.030184353615e-14      -2.633977972712e-13       0.000000000000e+00       4.185378078237e-11       5.164482318816e-12      -9.927246679604e-15 
   60       2.513801706839e-10       3.187361277898e-14      -3.105446449574e-13       0.000000000000e+00       4.027958538176e-11       4.990111061530e-12      -1.026602278180e-14 
   61       2.547887344564e-10       3.348735173353e-14      -3.597533225851e-13       0.000000000000e+00       3.877580837017e-11       4.823026570921e-12      -1.046694352628e-14 
   62       2.582308742348e-10       3.514267484438e-14      -4.110244723035e-13       0.000000000000e+00       3.734094279801e-11       4.663141536353e-12      -1.054556044830e-14 
   63       2.617084062732e-10       3.683922542241e-14      -4.643519517613e-13       0.000000000000e+00       3.597505145824e-11       4.510524705193e-12      -1.053128038493e-14 
   64       2.652223312723e-10       3.857660086729e-14      -5.197270496805e-13       0.000000000000e+00       3.467662599472e-11       4.365077993122e-12      -1.045836637933e-14 
   65       2.687727758613e-10       4.035435231215e-14      -5.771384641406e-13       0.000000000000e+00       3.344249750112e-11       4.226526806714e-12      -1.036614161514e-14 
   66       2.723589340789e-10       4.217198426816e-14      -6.365722808642e-13       0.000000000000e+00       3.226774711991e-11       4.094410366008e-12      -1.029919335087e-14 
   67       2.759790088548e-10       4.402895426926e-14      -6.980119515008e-13       0.000000000000e+00       3.114561664134e-11       3.968072027083e-12      -1.030757685433e-14 
   68       2.796311337771e-10       4.592457284101e-14      -7.614354352513e-13       0.000000000000e+00       3.006931024269e-11       3.846841844993e-12      -1.043392863637e-14 
   69       2.833164860889e-10       4.785768066513e-14      -8.268059997190e-13       0.000000000000e+00       2.903802348234e-11       3.730648850412e-12      -1.067131811872e-14 
   70       2.870367022394e-10       4.982690506107e-14      -8.940795084942e-13       0.000000000000e+00       2.805198094773e-11       3.619516021440e-12      -1.099718272139e-14 
   71       2.907929205606e-10       5.183075102132e-14      -9.632070003162e-13       0.000000000000e+00       2.711061290597e-11       3.513374344880e-12      -1.138553439596e-14 
   72       2.945857478197e-10       5.386759830678e-14      -1.034134594809e-12       0.000000000000e+00       2.621251426954e-11       3.412058055446e-12      -1.180682875944e-14 
   73       2.984152257715e-10       5.593569854215e-14      -1.106803398217e-12       0.000000000000e+00       2.535540356207e-11       3.315299874977e-12      -1.222783422812e-14 
   74       3.022807977114e-10       5.803317231134e-14      -1.181149409142e-12       0.000000000000e+00       2.453608188404e-11       3.222726251640e-12      -1.261150115147e-14 
   75       3.061812750272e-10       6.015800625282e-14      -1.257103424278e-12       0.000000000000e+00       2.375039187850e-11       3.133852599144e-12      -1.291683094595e-14 
   76       3.101154680447e-10       6.230821812500e-14      -1.334601089124e-12       0.000000000000e+00       2.299424777395e-11       3.048204029583e-12      -1.310822423429e-14 
   77       3.140842853064e-10       6.448239317340e-14      -1.413615374450e-12       0.000000000000e+00       2.226703307131e-11       2.965713493276e-12      -1.318578257546e-14 
   78       3.180889581175e-10       6.667924074992e-14      -1.494129878324e-12       0.000000000000e+00       2.156875076915e-11       2.886387929567e-12      -1.316032031621e-14 
   79       3.221303907097e-10       6.889743555101e-14      -1.576129318450e-12       0.000000000000e+00       2.089898848992e-11       2.810187062001e-12      -1.304443827056e-14 
   80       3.262091404156e-10       7.113561815735e-14      -1.659599645935e-12       0.000000000000e+00       2.025689940897e-11       2.737021210885e-12      -1.285258722833e-14 
   81       3.303253978430e-10       7.339239557369e-14      -1.744528159053e-12       0.000000000000e+00       1.964118318361e-11       2.666749105847e-12      -1.260113146369e-14 
   82       3.344789670496e-10       7.566634176851e-14      -1.830903617013e-12       0.000000000000e+00       1.905006688211e-11       2.599175698388e-12      -1.230841224372e-14 
   83       3.386692457169e-10       7.795599821384e-14      -1.918716353727e-12       0.000000000000e+00       1.848128591274e-11       2.534049974447e-12      -1.199481133693e-14 
   84       3.428955658128e-10       8.025980868765e-14      -2.007947363002e-12       0.000000000000e+00       1.793263315446e-11       2.471125702525e-12      -1.167911184901e-14 
   85       3.471583238930e-10       8.257591008027e-14      -2.098533225903e-12       0.000000000000e+00       1.740375271973e-11       2.410360040703e-12      -1.136674844180e-14 
   86       3.514580027014e-10       8.490230773645e-14      -2.190395550643e-12       0.000000000000e+00       1.689460997655e-11       2.351743996977e-12      -1.105971663268e-14 
   87       3.557948137787e-10       8.723693755255e-14      -2.283451413669e-12       0.000000000000e+00       1.640494040510e-11       2.295241308032e-12      -1.076010353991e-14 
   88       3.601686836952e-10       8.957766541143e-14      -2.377613288068e-12       0.000000000000e+00       1.593424007647e-11       2.240787309538e-12      -1.047008916136e-14 
   89       3.645792402838e-10       9.192228661735e-14      -2.472788971987e-12       0.000000000000e+00       1.548175613126e-11       2.188287806449e-12      -1.019194765329e-14 
   90       3.690257988733e-10       9.426852533094e-14      -2.568881517042e-12       0.000000000000e+00       1.504647725820e-11       2.137617943301e-12      -9.928048609069e-15 
   91       3.735073485212e-10       9.661403400408e-14      -2.665789156732e-12       0.000000000000e+00       1.462712417282e-11       2.088621074510e-12      -9.680858337945e-15 
   92       3.780225382466e-10       9.895639281487e-14      -2.763405234848e-12       0.000000000000e+00       1.422214009609e-11       2.041107634672e-12      -9.452941143796e-15 
   93       3.825700856385e-10       1.012932017314e-13      -2.861626863333e-12       0.000000000000e+00       1.383005931632e-11       1.994901647355e-12      -9.246364186770e-15 
   94       3.871501028802e-10       1.036223737693e-13      -2.960382540840e-12       0.000000000000e+00       1.345069696424e-11       1.949990706748e-12      -9.060806901320e-15 
   95       3.917629456330e-10       1.059418850010e-13      -3.059608574978e-12       0.000000000000e+00       1.308412140878e-11       1.906396569514e-12      -8.895168275727e-15 
   96       3.964088005691e-10       1.082496865529e-13      -3.159240770576e-12       0.000000000000e+00       1.273028784445e-11       1.864129056800e-12      -8.748131118030e-15 
   97       4.010876774024e-10       1.105437053127e-13      -3.259214477923e-12       0.000000000000e+00       1.238903395987e-11       1.823185578451e-12      -8.618155147861e-15 
   98       4.057994009193e-10       1.128218446350e-13      -3.359464641013e-12       0.000000000000e+00       1.206007560630e-11       1.783550657240e-12      -8.503470088274e-15 
   99       4.105436030096e-10       1.150819850483e-13      -3.459925845779e-12       0.000000000000e+00       1.174300246616e-11       1.745195453092e-12      -8.402068757581e-15 
  100       4.153197146976e-10       1.173219849612e-13      -3.560532368340e-12       0.000000000000e+00       1.143727372159e-11       1.708077287307e-12      -8.311700161176e-15 
  101       4.201269581726e-10       1.195396813689e-13      -3.661218223235e-12       0.000000000000e+00       1.114221372290e-11       1.672139166783e-12      -8.229862583375e-15 
  102       4.249643388200e-10       1.217328905594e-13      -3.761917211667e-12       0.000000000000e+00       1.085700765718e-11       1.637309308241e-12      -8.153796679243e-15 
  103       4.298306372524e-10       1.238994088202e-13      -3.862562969743e-12       0.000000000000e+00       1.058069721677e-11       1.603500662453e-12      -8.080478566425e-15 
  104       4.347246616355e-10       1.260370464943e-13      -3.963086628070e-12       0.000000000000e+00       1.031239738218e-11       1.570631423830e-12      -8.007211312261e-15 
  105       4.396460606511e-10       1.281437338666e-13      -4.063409326584e-12       0.000000000000e+00       1.005198945132e-11       1.538690739275e-12      -7.933505272277e-15 
  106       4.445946060083e-10       1.302174309644e-13      -4.163448773811e-12       0.000000000000e+00       9.799513989107e-12       1.507681029984e-12      -7.859440061687e-15 
  107       4.495699369076e-10       1.322560965456e-13      -4.263121566940e-12       0.000000000000e+00       9.554956194382e-12       1.477597556502e-12      -7.785088514133e-15 
