# dimensionless total lensed [l(l+1)/2pi] C_l's
# for l=2 to 2500, i.e. number of multipoles equal to 2499
#
# -> if you prefer output in CAMB/HealPix/LensPix units/order, set 'format' to 'camb' in input file
# -> if you don't want to see such a header, set 'headers' to 'no' in input file
# -> for CMB lensing (phi), these are C_l^phi-phi for the lensing potential.
#    Remember the conversion factors:
#    C_l^dd (deflection) = l(l+1) C_l^phi-phi
#    C_l^gg (shear/convergence) = 1/4 (l(l+1))^2 C_l^phi-phi
#
# 1:l     2:TT                     3:EE                     4:TE                     5:BB                     6:phiphi                 7:TPhi                   8:Ephi               
    2       1.742736974747e-10       7.642684275494e-15       5.080225018201e-13       2.853825196861e-19       9.470087850913e-09       5.820800500556e-10      -2.716957177876e-12 
    3       1.629238108321e-10       1.193538157798e-14       6.231372187344e-13       5.709855780566e-19       5.865297570028e-09       4.125340996536e-10      -2.299398008757e-12 
    4       1.523576054762e-10       1.276016102835e-14       6.277010806813e-13       9.521256068381e-19       4.085966012072e-09       3.122751401456e-10      -1.743017487531e-12 
    5       1.442522658470e-10       1.069381619890e-14       5.718895504628e-13       1.429077139010e-18       3.050239054730e-09       2.466890278319e-10      -1.206771537400e-12 
    6       1.384001531862e-10       7.407667491114e-15       4.891626747698e-13       2.002167176175e-18       2.381932259604e-09       2.006864861390e-10      -7.438314105209e-13 
    7       1.343218941068e-10       4.424209407176e-15       4.015747323013e-13       2.671765343262e-18       1.920130273426e-09       1.668363089194e-10      -3.777110556893e-13 
    8       1.316672407608e-10       2.477321271853e-15       3.216469369710e-13       3.438272956073e-18       1.585068266728e-09       1.410946200377e-10      -1.142097373819e-13 
    9       1.300571637596e-10       1.548608293076e-15       2.560702337664e-13       4.302111422479e-18       1.333437002124e-09       1.210487823094e-10       5.271664674792e-14 
   10       1.292655041097e-10       1.237914005510e-15       2.076341650158e-13       5.263710421562e-18       1.139489030851e-09       1.051288833936e-10       1.372876172195e-13 
   11       1.290888809025e-10       1.138893721040e-15       1.762512233978e-13       6.323496310573e-18       9.631260957838e-10       9.257498217500e-11       1.580878869018e-13 
   12       1.293743047141e-10       1.033234130494e-15       1.598769831489e-13       7.481881197001e-18       8.413742209722e-10       8.182203364685e-11       1.367652498412e-13 
   13       1.300229467194e-10       8.908120419732e-16       1.553200006937e-13       8.739253082902e-18       7.414199247755e-10       7.286020358682e-11       9.200705936999e-14 
   14       1.309957359285e-10       7.687988874326e-16       1.589572333835e-13       1.009596744211e-17       6.582678619150e-10       6.546941916099e-11       4.021664589242e-14 
   15       1.321936973050e-10       7.147259276665e-16       1.673549962805e-13       1.155234052994e-17       5.882891536703e-10       5.904140781607e-11      -7.123066738754e-15 
   16       1.335553758810e-10       7.282098656084e-16       1.777428181173e-13       1.310864465220e-17       5.287921982563e-10       5.351523519481e-11      -4.244146600743e-14 
   17       1.350913375954e-10       7.765098982246e-16       1.882187130368e-13       1.476510553807e-17       4.777570151886e-10       4.875717737090e-11      -6.265187976540e-14 
   18       1.367725601035e-10       8.267064697001e-16       1.976393640364e-13       1.652190085249e-17       4.334665969789e-10       4.459775434895e-11      -6.834844162179e-14 
   19       1.385920710921e-10       8.766375516702e-16       2.058105545799e-13       1.837916696877e-17       3.952149577667e-10       4.095638378065e-11      -6.227085164808e-14 
   20       1.404889921443e-10       9.360462752496e-16       2.128865775758e-13       2.033699146265e-17       3.615296459555e-10       3.768551563308e-11      -4.904864607684e-14 
   21       1.424689953208e-10       1.021501789077e-15       2.193188051706e-13       2.239543360031e-17       3.318807280820e-10       3.476404289891e-11      -3.275016890141e-14 
   22       1.445229269035e-10       1.150627438603e-15       2.257243235172e-13       2.455451547764e-17       3.055571900416e-10       3.216596257402e-11      -1.769178476838e-14 
   23       1.466520819657e-10       1.322852620705e-15       2.325684402776e-13       2.681424667885e-17       2.821965289576e-10       2.986254527282e-11      -6.268550052513e-15 
   24       1.488364822370e-10       1.530283950364e-15       2.402214352102e-13       2.917461535746e-17       2.612584263249e-10       2.779445048081e-11      -6.429022092423e-17 
   25       1.510764861542e-10       1.768264038913e-15       2.486665192031e-13       3.163561728327e-17       2.424959559244e-10       2.593041944382e-11       9.845776618415e-16 
   26       1.533620254319e-10       2.032947408178e-15       2.576660948377e-13       3.419724499376e-17       2.255688566167e-10       2.423206831289e-11      -2.157068831843e-15 
   27       1.556961962644e-10       2.324797573391e-15       2.667945103102e-13       3.685951333604e-17       2.102740822416e-10       2.269126616690e-11      -7.926138212459e-15 
   28       1.580746903913e-10       2.645047382139e-15       2.755041941887e-13       3.962245241144e-17       1.963481273995e-10       2.129713623356e-11      -1.440174411295e-14 
   29       1.605042491095e-10       2.992408405896e-15       2.833498968237e-13       4.248613767182e-17       1.837195857218e-10       2.003861909590e-11      -2.037360684203e-14 
   30       1.629802206478e-10       3.364175388286e-15       2.898431090910e-13       4.545067212171e-17       1.722523556411e-10       1.888994922128e-11      -2.465690287697e-14 
   31       1.654863521654e-10       3.757971087705e-15       2.944990899399e-13       4.851618601976e-17       1.617120143163e-10       1.781618027583e-11      -2.614459355002e-14 
   32       1.680298544983e-10       4.176353632611e-15       2.972241281166e-13       5.168285826860e-17       1.520440600915e-10       1.681631230231e-11      -2.501358196467e-14 
   33       1.706165156348e-10       4.624012508476e-15       2.980767058935e-13       5.495090931499e-17       1.431802225243e-10       1.589451641552e-11      -2.199196668464e-14 
   34       1.732431670530e-10       5.105849741579e-15       2.971672231914e-13       5.832059563896e-17       1.349965113522e-10       1.504889773713e-11      -1.797554975698e-14 
   35       1.759082055459e-10       5.624180170660e-15       2.946408797568e-13       6.179219637557e-17       1.274507977215e-10       1.427382471466e-11      -1.370461687389e-14 
   36       1.786026241057e-10       6.180580413075e-15       2.906959910037e-13       6.536602796669e-17       1.204821637529e-10       1.355722131099e-11      -9.997687664919e-15 
   37       1.813129513814e-10       6.776436473418e-15       2.855347161708e-13       6.904243170531e-17       1.139995251476e-10       1.288407122343e-11      -7.640845210137e-15 
   38       1.840448659785e-10       7.412303564857e-15       2.791644584185e-13       7.282170726752e-17       1.079860544117e-10       1.225288951724e-11      -6.676235036515e-15 
   39       1.868060517257e-10       8.088311978049e-15       2.715323302945e-13       7.670416112962e-17       1.024226944084e-10       1.166399101711e-11      -6.878531592251e-15 
   40       1.895991321374e-10       8.804314275652e-15       2.625772563272e-13       8.069012657568e-17       9.725640859360e-11       1.111473300528e-11      -7.937635322070e-15 
   41       1.924231269460e-10       9.560102193728e-15       2.522131838480e-13       8.477993271476e-17       9.241864280175e-11       1.060074348568e-11      -9.484715942521e-15 
   42       1.952797909145e-10       1.035618763489e-14       2.402741832593e-13       8.897379527306e-17       8.789506314473e-11       1.012073979308e-11      -1.119521668652e-14 
   43       1.981683590120e-10       1.119324414914e-14       2.265500469788e-13       9.327189314227e-17       8.367353182621e-11       9.672821441137e-12      -1.270910429292e-14 
   44       2.010832522726e-10       1.207189048780e-14       2.107987776117e-13       9.767439749113e-17       7.972317750910e-11       9.252940205989e-12      -1.359778920482e-14 
   45       2.040174727130e-10       1.299268061426e-14       1.928042880451e-13       1.021814423976e-16       7.600539511982e-11       8.856288386019e-12      -1.348941814357e-14 
   46       2.069750403621e-10       1.395607642744e-14       1.725746249357e-13       1.067930275669e-16       7.251427912217e-11       8.482355613336e-12      -1.249851269345e-14 
   47       2.099615222707e-10       1.496246237036e-14       1.501997198113e-13       1.115090855977e-16       6.924574280234e-11       8.131097176765e-12      -1.091821170693e-14 
   48       2.129803027799e-10       1.601214906216e-14       1.257983650327e-13       1.163295061265e-16       6.618532623760e-11       7.801431679553e-12      -9.105757198185e-15 
   49       2.160323623363e-10       1.710537022240e-14       9.951971606089e-14       1.212541336193e-16       6.330742512738e-11       7.491162179407e-12      -7.486073479644e-15 
   50       2.191171258847e-10       1.824231549555e-14       7.150444366259e-14       1.262827644608e-16       6.058299329765e-11       7.197664215126e-12      -6.450454962434e-15 
   51       2.222357926785e-10       1.942324656448e-14       4.175227397885e-14       1.314151424090e-16       5.800690412769e-11       6.920353010146e-12      -6.011906057362e-15 
   52       2.253885279777e-10       2.064840723802e-14       1.022109046492e-14       1.366509580907e-16       5.557668306048e-11       6.658749649229e-12      -6.062433942962e-15 
   53       2.285733056688e-10       2.191798895177e-14      -2.313624567363e-14       1.419898474087e-16       5.328431947716e-11       6.411730967169e-12      -6.468438471383e-15 
   54       2.317857374133e-10       2.323212938175e-14      -5.837229204096e-14       1.474313893013e-16       5.111589428915e-11       6.177486777612e-12      -7.069355242009e-15 
   55       2.350211238917e-10       2.459087282869e-14      -9.553827373921e-14       1.529751515400e-16       4.905581698007e-11       5.954053553066e-12      -7.708345443738e-15 
   56       2.382815966652e-10       2.599404302233e-14      -1.346609569319e-13       1.586208465784e-16       4.710162247823e-11       5.741168702173e-12      -8.336401930886e-15 
   57       2.415704512456e-10       2.744133629063e-14      -1.757607247833e-13       1.643682104942e-16       4.525219784326e-11       5.538802017637e-12      -8.931728568373e-15 
   58       2.448899980012e-10       2.893235420754e-14      -2.188583374812e-13       1.702169579814e-16       4.350330625062e-11       5.346599713751e-12      -9.469853357415e-15 
   59       2.482414778805e-10       3.046660071713e-14      -2.639750503087e-13       1.761667819811e-16       4.184739417263e-11       5.163864114355e-12      -9.923520084542e-15 
   60       2.516249781353e-10       3.204347925781e-14      -3.111327317153e-13       1.822173533118e-16       4.027339855957e-11       4.989533340788e-12      -1.026257997063e-14 
   61       2.550401619235e-10       3.366236919630e-14      -3.603495846622e-13       1.883683880141e-16       3.876981375378e-11       4.822495865467e-12      -1.046372938024e-14 
   62       2.584888391461e-10       3.532288168385e-14      -4.116259212737e-13       1.946198678838e-16       3.733513288194e-11       4.662662630307e-12      -1.054252222489e-14 
   63       2.619728257377e-10       3.702465638790e-14      -4.649553901421e-13       2.009718690097e-16       3.596941865078e-11       4.510100627890e-12      -1.052838351774e-14 
   64       2.654931234129e-10       3.876728689770e-14      -5.203290702865e-13       2.074245001717e-16       3.467116280551e-11       4.364709775984e-12      -1.045559739327e-14 
   65       2.690498612135e-10       4.055032036493e-14      -5.777354497199e-13       2.139779046200e-16       3.343719673972e-11       4.226213230527e-12      -1.036351116437e-14 
   66       2.726422370553e-10       4.237325714436e-14      -6.371604040157e-13       2.206322618540e-16       3.226260210530e-11       4.094147698617e-12      -1.029673937935e-14 
   67       2.762684592757e-10       4.423555043445e-14      -6.985871748745e-13       2.273877894021e-16       3.114062142238e-11       3.967853751500e-12      -1.030536787909e-14 
   68       2.799266669967e-10       4.613650695901e-14      -7.619935579826e-13       2.342447358912e-16       3.006445960711e-11       3.846659027572e-12      -1.043205735387e-14 
   69       2.836180384296e-10       4.807496644631e-14      -8.273428528156e-13       2.412033546517e-16       2.903331225686e-11       3.730492601286e-12      -1.066986342938e-14 
   70       2.873442102813e-10       5.004955626001e-14      -8.945910320977e-13       2.482639279356e-16       2.804740388239e-11       3.619378271364e-12      -1.099619712764e-14 
   71       2.911063218451e-10       5.205878177329e-14      -9.636892791122e-13       2.554267766814e-16       2.710616477346e-11       3.513248016833e-12      -1.138504050800e-14 
   72       2.949049815811e-10       5.410102347854e-14      -1.034583894895e-12       2.626922620697e-16       2.620818996977e-11       3.411937243261e-12      -1.180681567303e-14 
   73       2.987402336976e-10       5.617453409708e-14      -1.107216205429e-12       2.700607870803e-16       2.535119823197e-11       3.315180028993e-12      -1.222825377448e-14 
   74       3.026115247316e-10       5.827743568886e-14      -1.181522468833e-12       2.775327980483e-16       2.453199101269e-11       3.222604371385e-12      -1.261226401918e-14 
   75       3.065176701297e-10       6.040771676218e-14      -1.257433782562e-12       2.851087862203e-16       2.374641142751e-11       3.133727433046e-12      -1.291780267492e-14 
   76       3.104574835054e-10       6.256339619487e-14      -1.334886000137e-12       2.927892078044e-16       2.299037417176e-11       3.048075944008e-12      -1.310923453097e-14 
   77       3.144318707597e-10       6.474305589660e-14      -1.413851774246e-12       3.005742238447e-16       2.226326279123e-11       2.965583264404e-12      -1.318667767907e-14 
   78       3.184420588918e-10       6.694540048032e-14      -1.494314215399e-12       3.084639155192e-16       2.156508025701e-11       2.886256427856e-12      -1.316097996853e-14 
   79       3.224889476908e-10       6.916909958963e-14      -1.576257511381e-12       3.164583613249e-16       2.089541421880e-11       2.810055257034e-12      -1.304478007842e-14 
   80       3.265730899048e-10       7.141278842905e-14      -1.659667039701e-12       3.245576369633e-16       2.025341793653e-11       2.736890176312e-12      -1.285257117398e-14 
   81       3.306946714106e-10       7.367506829438e-14      -1.744529480041e-12       3.327618152254e-16       1.963779121196e-11       2.666620024431e-12      -1.260076456297e-14 
   82       3.348534913836e-10       7.595450710296e-14      -1.830832926699e-12       3.410709658767e-16       1.904676132031e-11       2.599049867161e-12      -1.230775335211e-14 
   83       3.390489424670e-10       7.824963992405e-14      -1.918567001041e-12       3.494851555423e-16       1.847806394185e-11       2.533928809955e-12      -1.199397610339e-14 
   84       3.432803507473e-10       8.055890575754e-14      -2.007712044205e-12       3.580044616027e-16       1.792949222136e-11       2.471010666146e-12      -1.167826320129e-14 
   85       3.475481038769e-10       8.288044466667e-14      -2.098204390387e-12       3.666290167805e-16       1.740069029827e-11       2.410252308656e-12      -1.136604058620e-14 
   86       3.518526744812e-10       8.521226783016e-14      -2.189965516001e-12       3.753589717689e-16       1.689162352732e-11       2.351644343309e-12      -1.105927806831e-14 
   87       3.561942634018e-10       8.755231777038e-14      -2.282912377530e-12       3.841944819967e-16       1.640202740696e-11       2.295150062652e-12      -1.076003390772e-14 
   88       3.605727859123e-10       8.989846781223e-14      -2.376957340447e-12       3.931357077491e-16       1.593139805928e-11       2.240704315015e-12      -1.047045599541e-14 
   89       3.649878579354e-10       9.224852154196e-14      -2.472008108135e-12       4.021828142878e-16       1.547898271006e-11       2.188212373565e-12      -1.019278303419e-14 
   90       3.694387822597e-10       9.460021226607e-14      -2.567967650812e-12       4.113359719721e-16       1.504377016867e-11       2.137548805365e-12      -9.929345719613e-15 
   91       3.739245347560e-10       9.695120247013e-14      -2.664734134451e-12       4.205953563788e-16       1.462448130810e-11       2.088556340424e-12      -9.682567920912e-15 
   92       3.784437505946e-10       9.929908327767e-14      -2.762200849703e-12       4.299611484233e-16       1.421955954492e-11       2.041044740759e-12      -9.454967861960e-15 
   93       3.829951346742e-10       1.016414645617e-13      -2.860264862179e-12       4.394336299564e-16       1.382753935175e-11       1.994837491871e-12      -9.248573509861e-15 
   94       3.875787934583e-10       1.039762619579e-13      -2.958854605899e-12       4.490134867409e-16       1.344823587271e-11       1.949922366588e-12      -9.063065597438e-15 
   95       3.921950788956e-10       1.063014522185e-13      -3.057906327795e-12       4.587015514776e-16       1.308171745715e-11       1.906321520401e-12      -8.897356195084e-15 
   96       3.968441742015e-10       1.086149870998e-13      -3.157355784115e-12       4.684987138009e-16       1.272793929634e-11       1.864045218601e-12      -8.750142849635e-15 
   97       4.015260858979e-10       1.109147940652e-13      -3.257138289061e-12       4.784059217100e-16       1.238673909260e-11       1.823091361788e-12      -8.619901724229e-15 
   98       4.062406358531e-10       1.131987769889e-13      -3.357188763428e-12       4.884241829996e-16       1.205783272851e-11       1.783445011373e-12      -8.504880738170e-15 
   99       4.109874533218e-10       1.154648168582e-13      -3.457441783243e-12       4.985545666918e-16       1.174080993603e-11       1.745077915089e-12      -8.403092706792e-15 
  100       4.157659669847e-10       1.177107724779e-13      -3.557831628403e-12       5.087982044664e-16       1.143512996569e-11       1.707948032494e-12      -8.312308481314e-15 
  101       4.205753969883e-10       1.199344811726e-13      -3.658292331315e-12       5.191562920926e-16       1.114011725576e-11       1.671999060479e-12      -8.230050088710e-15 
  102       4.254147469848e-10       1.221337594905e-13      -3.758757725533e-12       5.296300908599e-16       1.085495710139e-11       1.637159958773e-12      -8.153583871565e-15 
  103       4.302827961719e-10       1.243064039061e-13      -3.859161494398e-12       5.402209290091e-16       1.057869132381e-11       1.603344475453e-12      -8.079913627939e-15 
  104       4.351783504711e-10       1.264502264428e-13      -3.959434802662e-12       5.509300859667e-16       1.031043502239e-11       1.570471467280e-12      -8.006366193932e-15 
  105       4.401010518501e-10       1.285631655035e-13      -4.059498722243e-12       5.617584241537e-16       1.005006950540e-11       1.538530008927e-12      -7.932453056701e-15 
  106       4.450506639973e-10       1.306431913920e-13      -4.159270869215e-12       5.727067098758e-16       9.797635325920e-12       1.507522235410e-12      -7.858248599662e-15 
  107       4.500268178945e-10       1.326882738051e-13      -4.258667751262e-12       5.837757262208e-16       9.553117679333e-12       1.477443089657e-12      -7.783819770755e-15 
