# dimensionless total lensed [l(l+1)/2pi] C_l's
# for l=2 to 2500, i.e. number of multipoles equal to 2499
#
# -> if you prefer output in CAMB/HealPix/LensPix units/order, set 'format' to 'camb' in input file
# -> if you don't want to see such a header, set 'headers' to 'no' in input file
# -> for CMB lensing (phi), these are C_l^phi-phi for the lensing potential.
#    Remember the conversion factors:
#    C_l^dd (deflection) = l(l+1) C_l^phi-phi
#    C_l^gg (shear/convergence) = 1/4 (l(l+1))^2 C_l^phi-phi
#
# 1:l     2:TT                     3:EE                     4:TE                     5:BB                     6:phiphi                 7:TPhi                   8:Ephi               
    2       1.742731137304e-10       7.642654825133e-15       5.080201069793e-13       2.853385647565e-19       9.470033378786e-09       5.820791044078e-10      -2.716950611716e-12 
    3       1.629232192937e-10       1.193533482269e-14       6.231344427865e-13       5.708976638433e-19       5.865260403689e-09       4.125332206867e-10      -2.299392378236e-12 
    4       1.523570196619e-10       1.276010936019e-14       6.276983624910e-13       9.519790736555e-19       4.085941122803e-09       3.122743565799e-10      -1.743013071597e-12 
    5       1.442516867691e-10       1.069377091743e-14       5.718871232215e-13       1.428857321868e-18       3.050223521782e-09       2.466883424407e-10      -1.206768280646e-12 
    6       1.383995781362e-10       7.407634457300e-15       4.891606449830e-13       2.001859403862e-18       2.381921986740e-09       2.006858904189e-10      -7.438291389398e-13 
    7       1.343213130861e-10       4.424188722849e-15       4.015731318451e-13       2.671354937687e-18       1.920122357351e-09       1.668357840467e-10      -3.777095858106e-13 
    8       1.316666439369e-10       2.477309545383e-15       3.216457182129e-13       3.437745231874e-18       1.585061487402e-09       1.410941455640e-10      -1.142089401555e-13 
    9       1.300565480053e-10       1.548601201068e-15       2.560692689752e-13       4.301451686931e-18       1.333430941995e-09       1.210483459810e-10       5.271685781367e-14 
   10       1.292648585916e-10       1.237908075990e-15       2.076333112397e-13       5.262903974770e-18       1.139483502969e-09       1.051284837723e-10       1.372873382728e-13 
   11       1.290881950907e-10       1.138887210227e-15       1.762503680340e-13       6.322528445956e-18       9.631219354108e-10       9.257465253196e-11       1.580872715792e-13 
   12       1.293735637831e-10       1.033226931132e-15       1.598760523815e-13       7.480737202039e-18       8.413705056557e-10       8.182174696294e-11       1.367644680269e-13 
   13       1.300221397846e-10       8.908048317717e-16       1.553189475985e-13       8.737918240113e-18       7.414165843208e-10       7.285995322554e-11       9.200629037468e-14 
   14       1.309948572465e-10       7.687922185953e-16       1.589560292932e-13       1.009442703021e-17       6.582648401716e-10       6.546919409457e-11       4.021603130701e-14 
   15       1.321927544070e-10       7.147198010608e-16       1.673536271413e-13       1.155057982518e-17       5.882864053602e-10       5.904119937772e-11      -7.123444527055e-15 
   16       1.335543622906e-10       7.282038517732e-16       1.777412703228e-13       1.310664892971e-17       5.287896863072e-10       5.351504020565e-11      -4.244158680287e-14 
   17       1.350902610562e-10       7.765035678920e-16       1.882169707019e-13       1.476286007335e-17       4.777547089444e-10       4.875699823718e-11      -6.265177438829e-14 
   18       1.367714311529e-10       8.266997172569e-16       1.976374187549e-13       1.651939092279e-17       4.334644717718e-10       4.459759431571e-11      -6.834817569934e-14 
   19       1.385908939009e-10       8.766303691487e-16       2.058083789229e-13       1.837637785430e-17       3.952129903464e-10       4.095624281482e-11      -6.227050263197e-14 
   20       1.404877647576e-10       9.360386514212e-16       2.128841193922e-13       2.033390844795e-17       3.615278189890e-10       3.768538966807e-11      -4.904828972175e-14 
   21       1.424677233069e-10       1.021493626862e-15       2.193160342228e-13       2.239204197502e-17       3.318790259995e-10       3.476392774395e-11      -3.274986358343e-14 
   22       1.445216278053e-10       1.150618531963e-15       2.257212492456e-13       2.455080053747e-17       3.055555997360e-10       3.216585558448e-11      -1.769156065922e-14 
   23       1.466507748486e-10       1.322842757295e-15       2.325650880410e-13       2.681019372586e-17       2.821950386046e-10       2.986244482735e-11      -6.268414449258e-15 
   24       1.488351832064e-10       1.530272953668e-15       2.402178355153e-13       2.917020970053e-17       2.612570262503e-10       2.779435592924e-11      -6.422816120179e-17 
   25       1.510752062020e-10       1.768251764700e-15       2.486626911870e-13       3.163084423781e-17       2.424946373750e-10       2.593033029947e-11       9.845904528218e-16 
   26       1.533607694947e-10       2.032933737908e-15       2.576620397597e-13       3.419208988162e-17       2.255676121868e-10       2.423198406668e-11      -2.157077167130e-15 
   27       1.556949667832e-10       2.324782353099e-15       2.667902212160e-13       3.685396148480e-17       2.102729053071e-10       2.269118638196e-11      -7.926142378230e-15 
   28       1.580734884719e-10       2.645030411851e-15       2.754996600539e-13       3.961648915378e-17       1.963470123999e-10       2.129706055789e-11      -1.440172542027e-14 
   29       1.605030752701e-10       2.992389504461e-15       2.833451118388e-13       4.247974834424e-17       1.837185273314e-10       2.003854695635e-11      -2.037355451532e-14 
   30       1.629790752062e-10       3.364154423426e-15       2.898380771676e-13       4.544384206355e-17       1.722513490681e-10       1.888987970938e-11      -2.465681653995e-14 
   31       1.654852353796e-10       3.757947974741e-15       2.944938239613e-13       4.850890057230e-17       1.617110557470e-10       1.781611229511e-11      -2.614448353246e-14 
   32       1.680287663296e-10       4.176328272381e-15       2.972186374565e-13       5.167510277370e-17       1.520431459026e-10       1.681624535586e-11      -2.501345994948e-14 
   33       1.706154557869e-10       4.623984762756e-15       2.980709910957e-13       5.494266911383e-17       1.431793493570e-10       1.589445102029e-11      -2.199184237766e-14 
   34       1.732421350864e-10       5.105819432590e-15       2.971612765306e-13       5.831185607090e-17       1.349956763698e-10       1.504883533322e-11      -1.797543030794e-14 
   35       1.759072008484e-10       5.624147112187e-15       2.946346963395e-13       6.178294277760e-17       1.274499982388e-10       1.427376632377e-11      -1.370450745713e-14 
   36       1.786016459856e-10       6.180544420951e-15       2.906895730870e-13       6.535624567232e-17       1.204813973274e-10       1.355716699725e-11      -9.997591217675e-15 
   37       1.813119991988e-10       6.776397366779e-15       2.855280729543e-13       6.903210604383e-17       1.139987897219e-10       1.288402011487e-11      -7.640762176651e-15 
   38       1.840439392200e-10       7.412261163693e-15       2.791575994260e-13       7.281082356537e-17       1.079853479765e-10       1.225284067401e-11      -6.676164329415e-15 
   39       1.868051501426e-10       8.088266103431e-15       2.715252630694e-13       7.669270471025e-17       1.024220150181e-10       1.166394372997e-11      -6.878470698656e-15 
   40       1.895982559172e-10       8.804264751062e-15       2.625699857914e-13       8.067808275874e-17       9.725575452946e-11       1.111468687466e-11      -7.937580066940e-15 
   41       1.924222767210e-10       9.560048842925e-15       2.522057122248e-13       8.476728681626e-17       9.241801264733e-11       1.060069843906e-11      -9.484660828083e-15 
   42       1.952789671822e-10       1.035613026782e-14       2.402665120144e-13       8.896053260882e-17       8.789445553199e-11       1.012069587973e-11      -1.119515721651e-14 
   43       1.981675619765e-10       1.119318255603e-14       2.265421773301e-13       9.325799902908e-17       8.367294542826e-11       9.672778786574e-12      -1.270903793640e-14 
   44       2.010824818491e-10       1.207182443635e-14       2.107907104871e-13       9.765985724704e-17       7.972261113267e-11       9.252899028410e-12      -1.359771585390e-14 
   45       2.040167285776e-10       1.299260985269e-14       1.927960244229e-13       1.021662413430e-16       7.600484774414e-11       8.856248973565e-12      -1.348934003063e-14 
   46       2.069743221463e-10       1.395600070764e-14       1.725661674649e-13       1.067771510285e-16       7.251374974042e-11       8.482318167289e-12      -1.249843242964e-14 
   47       2.099608296583e-10       1.496238145667e-14       1.501910735336e-13       1.114925189107e-16       6.924523041434e-11       8.131061750428e-12      -1.091813168458e-14 
   48       2.129796355694e-10       1.601206273489e-14       1.257895377786e-13       1.163122346357e-16       6.618482990237e-11       7.801398152609e-12      -9.105679507462e-15 
   49       2.160317205085e-10       1.710527828140e-14       9.951071886636e-14       1.212361426806e-16       6.330694401961e-11       7.491130230959e-12      -7.485999820023e-15 
   50       2.191165095939e-10       1.824221775590e-14       7.149529020781e-14       1.262640394424e-16       6.058252672597e-11       7.197633355476e-12      -6.450386556481e-15 
   51       2.222352019836e-10       1.942314282515e-14       4.174297672460e-14       1.313956686936e-16       5.800645141643e-11       6.920322810595e-12      -6.011843584115e-15 
   52       2.253879627708e-10       2.064829727049e-14       1.021165923247e-14       1.366307210764e-16       5.557624353781e-11       6.658719825337e-12      -6.062377448121e-15 
   53       2.285727656792e-10       2.191787249605e-14      -2.314580422470e-14       1.419688325110e-16       5.328389250424e-11       6.411701408146e-12      -6.468387265818e-15 
   54       2.317852222127e-10       2.323200614218e-14      -5.838197496024e-14       1.474095819550e-16       5.111547929134e-11       6.177457577225e-12      -7.069307795470e-15 
   55       2.350206329180e-10       2.459074248048e-14      -9.554808118117e-14       1.529525371993e-16       4.905541345612e-11       5.954024987261e-12      -7.708299516561e-15 
   56       2.382811293092e-10       2.599390525383e-14      -1.346708877038e-13       1.585974107130e-16       4.710122993246e-11       5.741141027905e-12      -8.336355499964e-15 
   57       2.415700068925e-10       2.744119081843e-14      -1.757707748293e-13       1.643439385890e-16       4.525181577921e-11       5.538775408725e-12      -8.931680147764e-15 
   58       2.448895760562e-10       2.893220078159e-14      -2.188684994396e-13       1.701918355370e-16       4.350293418800e-11       5.346574247031e-12      -9.469802097980e-15 
   59       2.482410777965e-10       3.046643912613e-14      -2.639853130481e-13       1.761407945145e-16       4.184703166545e-11       5.163839755209e-12      -9.923465878244e-15 
   60       2.516245994421e-10       3.204330933481e-14      -3.111430798511e-13       1.821904863573e-16       4.027304521528e-11       4.989509928050e-12      -1.026252355948e-14 
   61       2.550398042587e-10       3.366219081068e-14      -3.603599992372e-13       1.883406271224e-16       3.876946923608e-11       4.822473124549e-12      -1.046367225470e-14 
   62       2.584885022885e-10       3.532269468829e-14      -4.116363842865e-13       1.945911986148e-16       3.733479685756e-11       4.662640279785e-12      -1.054246582483e-14 
   63       2.619725096424e-10       3.702446060056e-14      -4.649658860592e-13       2.009422769302e-16       3.596909078160e-11       4.510078412596e-12      -1.052832898185e-14 
   64       2.654928282468e-10       3.876708209723e-14      -5.203395864617e-13       2.073939708549e-16       3.467084275749e-11       4.364687473402e-12      -1.045554550771e-14 
   65       2.690495873932e-10       4.055010628528e-14      -5.777459768303e-13       2.139464236444e-16       3.343688419245e-11       4.226190657483e-12      -1.036346230928e-14 
   66       2.726419852865e-10       4.237303346934e-14      -6.371709365148e-13       2.205998148032e-16       3.226229676201e-11       4.094124718261e-12      -1.029669347319e-14 
   67       2.762682305943e-10       4.423531679207e-14      -6.985977114628e-13       2.273543618634e-16       3.114032302051e-11       3.967830280582e-12      -1.030532432073e-14 
   68       2.799264626913e-10       4.613626293034e-14      -7.620041009273e-13       2.342103134556e-16       3.006416791876e-11       3.846635037124e-12      -1.043201508750e-14 
   69       2.836178595774e-10       4.807471162171e-14      -8.273534035110e-13       2.411679229149e-16       2.903302705531e-11       3.730468095326e-12      -1.066982141102e-14 
   70       2.873440575950e-10       5.004929025724e-14      -8.946015896505e-13       2.482274724982e-16       2.804712493663e-11       3.619353283633e-12      -1.099615446786e-14 
   71       2.911061956315e-10       5.205850424191e-14      -9.636998400140e-13       2.553892831479e-16       2.710589185295e-11       3.513222614135e-12      -1.138499649797e-14 
   72       2.949048816987e-10       5.410073410452e-14      -1.034594452682e-12       2.626537160481e-16       2.620792284949e-11       3.411911528925e-12      -1.180676981163e-14 
   73       2.987401595122e-10       5.617423260754e-14      -1.107226750329e-12       2.700211741813e-16       2.535093669775e-11       3.315154146451e-12      -1.222820579635e-14 
   74       3.026114750708e-10       5.827712185700e-14      -1.181532987400e-12       2.774921038846e-16       2.453173486672e-11       3.222578507869e-12      -1.261221392388e-14 
   75       3.065176432361e-10       6.040739041235e-14      -1.257444257295e-12       2.850669964060e-16       2.374616049418e-11       3.133701823395e-12      -1.291775075706e-14 
   76       3.104574771509e-10       6.256305719664e-14      -1.334896410050e-12       2.927463079566e-16       2.299012829739e-11       3.048050858619e-12      -1.310918134493e-14 
   77       3.144318828801e-10       6.474270412312e-14      -1.413862098498e-12       3.005301995931e-16       2.226302182364e-11       2.965558945970e-12      -1.318662379140e-14 
   78       3.184420877940e-10       6.694503579613e-14      -1.494324434398e-12       3.084187525092e-16       2.156484404201e-11       2.886233070147e-12      -1.316092588565e-14 
   79       3.224889921074e-10       6.916872184904e-14      -1.576267606985e-12       3.164120452183e-16       2.089518260284e-11       2.810032998621e-12      -1.304472623696e-14 
   80       3.265731490512e-10       7.141239747444e-14      -1.659676995433e-12       3.245101534392e-16       2.025319076948e-11       2.736869094087e-12      -1.285251793079e-14 
   81       3.306947450435e-10       7.367466395439e-14      -1.744539281299e-12       3.327131499810e-16       1.963756835003e-11       2.666600126912e-12      -1.260071218480e-14 
   82       3.348535798617e-10       7.595408919074e-14      -1.830842560984e-12       3.410211046281e-16       1.904654262905e-11       2.599031087588e-12      -1.230770200489e-14 
   83       3.390490468135e-10       7.824920823527e-14      -1.918576458184e-12       3.494340840253e-16       1.847784929931e-11       2.533910999178e-12      -1.199392584128e-14 
   84       3.432804725573e-10       8.055846007226e-14      -2.007721316156e-12       3.579521655732e-16       1.792928151784e-11       2.470993604645e-12      -1.167821397701e-14 
   85       3.475482447233e-10       8.287998476291e-14      -2.098213469575e-12       3.665754820128e-16       1.740048342473e-11       2.410235780089e-12      -1.136599233058e-14 
   86       3.518528357427e-10       8.521179348756e-14      -2.189974394896e-12       3.753041840558e-16       1.689142037344e-11       2.351628156392e-12      -1.105923071150e-14 
   87       3.561944462391e-10       8.755182877030e-14      -2.282921048634e-12       3.841384271499e-16       1.640182786266e-11       2.295134054717e-12      -1.075998737978e-14 
   88       3.605729912440e-10       8.989796393777e-14      -2.376965796281e-12       3.930783716000e-16       1.593120201639e-11       2.240688355680e-12      -1.047041022690e-14 
   89       3.649880864134e-10       9.224800257808e-14      -2.472016341230e-12       4.021241826880e-16       1.547879006392e-11       2.188196368520e-12      -1.019273795676e-14 
   90       3.694390342436e-10       9.459967799962e-14      -2.567975653695e-12       4.112760307940e-16       1.504358081993e-11       2.137532700268e-12      -9.929301266646e-15 
   91       3.739248102872e-10       9.695065268993e-14      -2.664741899633e-12       4.205340915164e-16       1.462429516450e-11       2.088540124923e-12      -9.682524028184e-15 
   92       3.784440493688e-10       9.929851777458e-14      -2.762208369665e-12       4.298985457924e-16       1.421937652315e-11       2.041028452615e-12      -9.454924468309e-15 
   93       3.829954560832e-10       1.016408831304e-13      -2.860272129236e-12       4.393696754928e-16       1.382735937696e-11       1.994821210669e-12      -9.248530558366e-15 
   94       3.875791368490e-10       1.039756644040e-13      -2.958861611690e-12       4.489481663883e-16       1.344805887018e-11       1.949906174141e-12      -9.063023038119e-15 
   95       3.921954436429e-10       1.063008383614e-13      -3.057913063087e-12       4.586348511838e-16       1.308154335077e-11       1.906305489639e-12      -8.897313986350e-15 
   96       3.968445597155e-10       1.086143567732e-13      -3.157362238724e-12       4.684306195173e-16       1.272776800938e-11       1.864029412517e-12      -8.750100959309e-15 
   97       4.015264916313e-10       1.109141471186e-13      -3.257144451769e-12       4.783364193900e-16       1.238657054861e-11       1.823075832358e-12      -8.619860130608e-15 
   98       4.062410613087e-10       1.131981132882e-13      -3.357194621896e-12       4.883532585984e-16       1.205766685217e-11       1.783429798444e-12      -8.504839431113e-15 
   99       4.109878980606e-10       1.154641362871e-13      -3.457447323926e-12       4.984822061646e-16       1.174064665409e-11       1.745063045240e-12      -8.403051688835e-15 
  100       4.157664306335e-10       1.177100749386e-13      -3.557836836457e-12       5.087243937681e-16       1.143496920791e-11       1.707933517862e-12      -8.312267768823e-15 
  101       4.205758792485e-10       1.199337665872e-13      -3.658297190507e-12       5.190810171761e-16       1.113995895591e-11       1.671984897561e-12      -8.230009713052e-15 
  102       4.254152476408e-10       1.221330278019e-13      -3.758762218144e-12       5.295533376753e-16       1.085480119827e-11       1.637146127194e-12      -8.153543880324e-15 
  103       4.302833150998e-10       1.243056550794e-13      -3.859165601126e-12       5.401426835027e-16       1.057853776230e-11       1.603330936705e-12      -8.079874086149e-15 
  104       4.351788876305e-10       1.264494604626e-13      -3.959438503132e-12       5.508503340827e-16       1.031028375296e-11       1.570458167583e-12      -8.006327180408e-15 
  105       4.401016072211e-10       1.285623823616e-13      -4.059501997432e-12       5.616771518472e-16       1.004992047867e-11       1.538516895144e-12      -7.932414644801e-15 
  106       4.450512375649e-10       1.306423910833e-13      -4.159273702215e-12       5.726239031161e-16       9.797488491628e-12       1.507509259624e-12      -7.858210851560e-15 
  107       4.500274096505e-10       1.326874563278e-13      -4.258670127464e-12       5.836913709917e-16       9.552972986704e-12       1.477430209767e-12      -7.783782736442e-15 
